# trajectory
# s[mm] rx[mm] ry[mm] rz[mm] px[rad] py[rad] pz[rad]
0.0000000000000000e+00 +4.6467000000000001e+00 +0.0000000000000000e+00 +0.0000000000000000e+00 +0.0000000000000000e+00 +0.0000000000000000e+00 +1.0000000000000000e+00
-1.0000000000000001e-01 +4.6466995720276350e+00 +0.0000000000000000e+00 -9.9999999998778927e-02 +8.5594473296480605e-06 +0.0000000000000000e+00 +9.9999999996336797e-01
-2.0000000000000001e-01 +4.6466982881105245e+00 +0.0000000000000000e+00 -1.9999999999023144e-01 +1.7118894961032062e-05 +0.0000000000000000e+00 +9.9999999985347177e-01
-3.0000000000000004e-01 +4.6466961482486235e+00 +0.0000000000000000e+00 -2.9999999996703114e-01 +2.5678343180248847e-05 +0.0000000000000000e+00 +9.9999999967031139e-01
-4.0000000000000002e-01 +4.6466931524418618e+00 +0.0000000000000000e+00 -3.9999999992185159e-01 +3.4237792216085814e-05 +0.0000000000000000e+00 +9.9999999941388684e-01
-5.0000000000000000e-01 +4.6466893006901477e+00 +0.0000000000000000e+00 -4.9999999984736637e-01 +4.2797242240021740e-05 +0.0000000000000000e+00 +9.9999999908419812e-01
-5.9999999999999998e-01 +4.6466845929933767e+00 +0.0000000000000000e+00 -5.9999999973624907e-01 +5.1356693366227410e-05 +0.0000000000000000e+00 +9.9999999868124512e-01
-6.9999999999999996e-01 +4.6466790293514357e+00 +0.0000000000000000e+00 -6.9999999958117320e-01 +5.9916145651566058e-05 +0.0000000000000000e+00 +9.9999999820502783e-01
-7.9999999999999993e-01 +4.6466726097642077e+00 +0.0000000000000000e+00 -7.9999999937481248e-01 +6.8475599095593580e-05 +0.0000000000000000e+00 +9.9999999765554626e-01
-8.9999999999999991e-01 +4.6466653342315798e+00 +0.0000000000000000e+00 -8.9999999910984030e-01 +7.7035053640558626e-05 +0.0000000000000000e+00 +9.9999999703280029e-01
-9.9999999999999989e-01 +4.6466572027534472e+00 +0.0000000000000000e+00 -9.9999999877893031e-01 +8.5594509171402422e-05 +0.0000000000000000e+00 +9.9999999633679004e-01
-1.0999999999999999e+00 +4.6466482153297184e+00 +0.0000000000000000e+00 -1.0999999983747561e+00 +9.4153965515758495e-05 +0.0000000000000000e+00 +9.9999999556751540e-01
-1.2000000000000000e+00 +4.6466383719603241e+00 +0.0000000000000000e+00 -1.1999999978899913e+00 +1.0271342244395208e-04 +0.0000000000000000e+00 +9.9999999472497647e-01
-1.3000000000000000e+00 +4.6466276726452200e+00 +0.0000000000000000e+00 -1.2999999973173093e+00 +1.1127287966899947e-04 +0.0000000000000000e+00 +9.9999999380917315e-01
-1.4000000000000001e+00 +4.6466161173843918e+00 +0.0000000000000000e+00 -1.3999999966493837e+00 +1.1983233684660706e-04 +0.0000000000000000e+00 +9.9999999282010554e-01
-1.5000000000000002e+00 +4.6466037061778653e+00 +0.0000000000000000e+00 -1.4999999958788881e+00 +1.2839179357517031e-04 +0.0000000000000000e+00 +9.9999999175777365e-01
-1.6000000000000003e+00 +4.6465904390257071e+00 +0.0000000000000000e+00 -1.5999999949984962e+00 +1.3695124939577238e-04 +0.0000000000000000e+00 +9.9999999062217759e-01
-1.7000000000000004e+00 +4.6465763159280336e+00 +0.0000000000000000e+00 -1.6999999940008814e+00 +1.4551070379218277e-04 +0.0000000000000000e+00 +9.9999998941331747e-01
-1.8000000000000005e+00 +4.6465613368850152e+00 +0.0000000000000000e+00 -1.7999999928787176e+00 +1.5407015619085554e-04 +0.0000000000000000e+00 +9.9999998813119340e-01
-1.9000000000000006e+00 +4.6465455018968829e+00 +0.0000000000000000e+00 -1.8999999916246781e+00 +1.6262960596092750e-04 +0.0000000000000000e+00 +9.9999998677580548e-01
-2.0000000000000004e+00 +4.6465288109639333e+00 +0.0000000000000000e+00 -1.9999999902314367e+00 +1.7118905241421617e-04 +0.0000000000000000e+00 +9.9999998534715395e-01
-2.1000000000000005e+00 +4.6465112640865351e+00 +0.0000000000000000e+00 -2.0999999886916667e+00 +1.7974849481092428e-04 +0.0000000000000000e+00 +9.9999998384523903e-01
-2.2000000000000006e+00 +4.6464928612651306e+00 +0.0000000000000000e+00 -2.1999999869980424e+00 +1.8830793242241236e-04 +0.0000000000000000e+00 +9.9999998227006104e-01
-2.3000000000000007e+00 +4.6464736025002322e+00 +0.0000000000000000e+00 -2.2999999851432369e+00 +1.9686736459397302e-04 +0.0000000000000000e+00 +9.9999998062162010e-01
-2.4000000000000008e+00 +4.6464534877924129e+00 +0.0000000000000000e+00 -2.3999999831199244e+00 +2.0542679075053838e-04 +0.0000000000000000e+00 +9.9999997889991654e-01
-2.5000000000000009e+00 +4.6464325171422995e+00 +0.0000000000000000e+00 -2.4999999809207782e+00 +2.1398621039668103e-04 +0.0000000000000000e+00 +9.9999997710495059e-01
-2.6000000000000010e+00 +4.6464106905505647e+00 +0.0000000000000000e+00 -2.5999999785384724e+00 +2.2254562311661515e-04 +0.0000000000000000e+00 +9.9999997523672246e-01
-2.7000000000000011e+00 +4.6463880080179187e+00 +0.0000000000000000e+00 -2.6999999759656808e+00 +2.3110502857419789e-04 +0.0000000000000000e+00 +9.9999997329523249e-01
-2.8000000000000012e+00 +4.6463644695451007e+00 +0.0000000000000000e+00 -2.7999999731950771e+00 +2.3966442651293077e-04 +0.0000000000000000e+00 +9.9999997128048090e-01
-2.9000000000000012e+00 +4.6463400751328727e+00 +0.0000000000000000e+00 -2.8999999702193349e+00 +2.4822381675596142e-04 +0.0000000000000000e+00 +9.9999996919246792e-01
-3.0000000000000013e+00 +4.6463148247820092e+00 +0.0000000000000000e+00 -2.9999999670311284e+00 +2.5678319920608545e-04 +0.0000000000000000e+00 +9.9999996703119376e-01
-3.1000000000000014e+00 +4.6462887184932917e+00 +0.0000000000000000e+00 -3.0999999636231315e+00 +2.6534257384574849e-04 +0.0000000000000000e+00 +9.9999996479665865e-01
-3.2000000000000015e+00 +4.6462617562674984e+00 +0.0000000000000000e+00 -3.1999999599880180e+00 +2.7390194073704838e-04 +0.0000000000000000e+00 +9.9999996248886269e-01
-3.3000000000000016e+00 +4.6462339381053974e+00 +0.0000000000000000e+00 -3.2999999561184619e+00 +2.8246130002173767e-04 +0.0000000000000000e+00 +9.9999996010780612e-01
-3.4000000000000017e+00 +4.6462052640077403e+00 +0.0000000000000000e+00 -3.3999999520071373e+00 +2.9102065192122627e-04 +0.0000000000000000e+00 +9.9999995765348915e-01
-3.5000000000000018e+00 +4.6461757339752499e+00 +0.0000000000000000e+00 -3.4999999476467178e+00 +2.9957999673658407e-04 +0.0000000000000000e+00 +9.9999995512591178e-01
-3.6000000000000019e+00 +4.6461453480086163e+00 +0.0000000000000000e+00 -3.5999999430298777e+00 +3.0813933484854405e-04 +0.0000000000000000e+00 +9.9999995252507401e-01
-3.7000000000000020e+00 +4.6461141061084881e+00 +0.0000000000000000e+00 -3.6999999381492907e+00 +3.1669866671750539e-04 +0.0000000000000000e+00 +9.9999994985097596e-01
-3.8000000000000020e+00 +4.6460820082754628e+00 +0.0000000000000000e+00 -3.7999999329976308e+00 +3.2525799288353686e-04 +0.0000000000000000e+00 +9.9999994710361761e-01
-3.9000000000000021e+00 +4.6460490545100805e+00 +0.0000000000000000e+00 -3.8999999275675723e+00 +3.3381731396638033e-04 +0.0000000000000000e+00 +9.9999994428299888e-01
-4.0000000000000018e+00 +4.6460152448128156e+00 +0.0000000000000000e+00 -3.9999999218517885e+00 +3.4237663066545446e-04 +0.0000000000000000e+00 +9.9999994138911963e-01
-4.1000000000000014e+00 +4.6459805791840676e+00 +0.0000000000000000e+00 -4.0999999158429539e+00 +3.5093594375453966e-04 +0.0000000000000000e+00 +9.9999993842197976e-01
-4.2000000000000011e+00 +4.6459450576241581e+00 +0.0000000000000000e+00 -4.1999999095337426e+00 +3.5949525402327175e-04 +0.0000000000000000e+00 +9.9999993538157905e-01
-4.3000000000000007e+00 +4.6459086801333314e+00 +0.0000000000000000e+00 -4.2999999029168281e+00 +3.6805456221863177e-04 +0.0000000000000000e+00 +9.9999993226791728e-01
-4.4000000000000004e+00 +4.6458714467117597e+00 +0.0000000000000000e+00 -4.3999998959848838e+00 +3.7661386903962307e-04 +0.0000000000000000e+00 +9.9999992908099422e-01
-4.5000000000000000e+00 +4.6458333573595469e+00 +0.0000000000000000e+00 -4.4999998887305850e+00 +3.8517317513726731e-04 +0.0000000000000000e+00 +9.9999992582080977e-01
-4.5999999999999996e+00 +4.6457944120767358e+00 +0.0000000000000000e+00 -4.5999998811466041e+00 +3.9373248111460030e-04 +0.0000000000000000e+00 +9.9999992248736358e-01
-4.6999999999999993e+00 +4.6457546108633094e+00 +0.0000000000000000e+00 -4.6999998732256154e+00 +4.0229178752666724e-04 +0.0000000000000000e+00 +9.9999991908065544e-01
-4.7999999999999989e+00 +4.6457139537191985e+00 +0.0000000000000000e+00 -4.7999998649602933e+00 +4.1085109488051789e-04 +0.0000000000000000e+00 +9.9999991560068524e-01
-4.8999999999999986e+00 +4.6456724406442858e+00 +0.0000000000000000e+00 -4.8999998563433111e+00 +4.1941040363520138e-04 +0.0000000000000000e+00 +9.9999991204745264e-01
-4.9999999999999982e+00 +4.6456300716384105e+00 +0.0000000000000000e+00 -4.9999998473673424e+00 +4.2796971420176082e-04 +0.0000000000000000e+00 +9.9999990842095754e-01
-5.0999999999999979e+00 +4.6455868467013728e+00 +0.0000000000000000e+00 -5.0999998380250604e+00 +4.3652902694322744e-04 +0.0000000000000000e+00 +9.9999990472119960e-01
-5.1999999999999975e+00 +4.6455427658329391e+00 +0.0000000000000000e+00 -5.1999998283091395e+00 +4.4508834217461466e-04 +0.0000000000000000e+00 +9.9999990094817870e-01
-5.2999999999999972e+00 +4.6454978290328466e+00 +0.0000000000000000e+00 -5.2999998182122541e+00 +4.5364766016291175e-04 +0.0000000000000000e+00 +9.9999989710189474e-01
-5.3999999999999968e+00 +4.6454520363008074e+00 +0.0000000000000000e+00 -5.3999998077270766e+00 +4.6220698112707731e-04 +0.0000000000000000e+00 +9.9999989318234739e-01
-5.4999999999999964e+00 +4.6454053876365160e+00 +0.0000000000000000e+00 -5.4999997968462813e+00 +4.7076630523803234e-04 +0.0000000000000000e+00 +9.9999988918953653e-01
-5.5999999999999961e+00 +4.6453578830396509e+00 +0.0000000000000000e+00 -5.5999997855625416e+00 +4.7932563261865300e-04 +0.0000000000000000e+00 +9.9999988512346205e-01
-5.6999999999999957e+00 +4.6453095225098808e+00 +0.0000000000000000e+00 -5.6999997738685311e+00 +4.8788496334376327e-04 +0.0000000000000000e+00 +9.9999988098412385e-01
-5.7999999999999954e+00 +4.6452603060468700e+00 +0.0000000000000000e+00 -5.7999997617569239e+00 +4.9644429744012729e-04 +0.0000000000000000e+00 +9.9999987677152180e-01
-5.8999999999999950e+00 +4.6452102336502810e+00 +0.0000000000000000e+00 -5.8999997492203935e+00 +5.0500363488644123e-04 +0.0000000000000000e+00 +9.9999987248565592e-01
-5.9999999999999947e+00 +4.6451593053197833e+00 +0.0000000000000000e+00 -5.9999997362516133e+00 +5.1356297561332500e-04 +0.0000000000000000e+00 +9.9999986812652597e-01
-6.0999999999999943e+00 +4.6451075210550528e+00 +0.0000000000000000e+00 -6.0999997228432568e+00 +5.2212231950376185e-04 +0.0000000000000000e+00 +9.9999986369413207e-01
-6.1999999999999940e+00 +4.6450548808557821e+00 +0.0000000000000000e+00 -6.1999997089879972e+00 +5.3068166639802061e-04 +0.0000000000000000e+00 +9.9999985918847423e-01
-6.2999999999999936e+00 +4.6450013847216800e+00 +0.0000000000000000e+00 -6.2999996946785091e+00 +5.3924101609858566e-04 +0.0000000000000000e+00 +9.9999985460955243e-01
-6.3999999999999932e+00 +4.6449470326524773e+00 +0.0000000000000000e+00 -6.3999996799074657e+00 +5.4780036837060993e-04 +0.0000000000000000e+00 +9.9999984995736668e-01
-6.4999999999999929e+00 +4.6448918246479298e+00 +0.0000000000000000e+00 -6.4999996646675404e+00 +5.5635972294192050e-04 +0.0000000000000000e+00 +9.9999984523191709e-01
-6.5999999999999925e+00 +4.6448357607078226e+00 +0.0000000000000000e+00 -6.5999996489514068e+00 +5.6491907950302460e-04 +0.0000000000000000e+00 +9.9999984043320378e-01
-6.6999999999999922e+00 +4.6447788408319743e+00 +0.0000000000000000e+00 -6.6999996327517390e+00 +5.7347843770711555e-04 +0.0000000000000000e+00 +9.9999983556122696e-01
-6.7999999999999918e+00 +4.6447210650202395e+00 +0.0000000000000000e+00 -6.7999996160612106e+00 +5.8203779717007917e-04 +0.0000000000000000e+00 +9.9999983061598674e-01
-6.8999999999999915e+00 +4.6446624332725124e+00 +0.0000000000000000e+00 -6.8999995988724949e+00 +5.9059715747050072e-04 +0.0000000000000000e+00 +9.9999982559748335e-01
-6.9999999999999911e+00 +4.6446029455887325e+00 +0.0000000000000000e+00 -6.9999995811782654e+00 +5.9915651814967171e-04 +0.0000000000000000e+00 +9.9999982050571701e-01
-7.0999999999999908e+00 +4.6445426019688867e+00 +0.0000000000000000e+00 -7.0999995629711963e+00 +6.0771587871159718e-04 +0.0000000000000000e+00 +9.9999981534068805e-01
-7.1999999999999904e+00 +4.6444814024130121e+00 +0.0000000000000000e+00 -7.1999995442439610e+00 +6.1627523862300341e-04 +0.0000000000000000e+00 +9.9999981010239680e-01
-7.2999999999999901e+00 +4.6444193469212030e+00 +0.0000000000000000e+00 -7.2999995249892340e+00 +6.2483459731334581e-04 +0.0000000000000000e+00 +9.9999980479084360e-01
-7.3999999999999897e+00 +4.6443564354936111e+00 +0.0000000000000000e+00 -7.3999995051996885e+00 +6.3339395417481696e-04 +0.0000000000000000e+00 +9.9999979940602890e-01
-7.4999999999999893e+00 +4.6442926681304506e+00 +0.0000000000000000e+00 -7.4999994848679981e+00 +6.4195330856235526e-04 +0.0000000000000000e+00 +9.9999979394795324e-01
-7.5999999999999890e+00 +4.6442280448320039e+00 +0.0000000000000000e+00 -7.5999994639868369e+00 +6.5051265979365353e-04 +0.0000000000000000e+00 +9.9999978841661696e-01
-7.6999999999999886e+00 +4.6441625655986210e+00 +0.0000000000000000e+00 -7.6999994425488794e+00 +6.5907200714916821e-04 +0.0000000000000000e+00 +9.9999978281202073e-01
-7.7999999999999883e+00 +4.6440962304307281e+00 +0.0000000000000000e+00 -7.7999994205467988e+00 +6.6763134987212857e-04 +0.0000000000000000e+00 +9.9999977713416510e-01
-7.8999999999999879e+00 +4.6440290393288270e+00 +0.0000000000000000e+00 -7.8999993979732706e+00 +6.7619068716854647e-04 +0.0000000000000000e+00 +9.9999977138305074e-01
-7.9999999999999876e+00 +4.6439609922935023e+00 +0.0000000000000000e+00 -7.9999993748209679e+00 +6.8475001820722612e-04 +0.0000000000000000e+00 +9.9999976555867842e-01
-8.0999999999999872e+00 +4.6438920893254227e+00 +0.0000000000000000e+00 -8.0999993510825643e+00 +6.9330934212540095e-04 +0.0000000000000000e+00 +9.9999975966104881e-01
-8.1999999999999869e+00 +4.6438223304253423e+00 +0.0000000000000000e+00 -8.1999993267507350e+00 +7.0186865809063355e-04 +0.0000000000000000e+00 +9.9999975369016270e-01
-8.2999999999999865e+00 +4.6437517155940942e+00 +0.0000000000000000e+00 -8.2999993018181542e+00 +7.1042796536270993e-04 +0.0000000000000000e+00 +9.9999974764602084e-01
-8.3999999999999861e+00 +4.6436802448325807e+00 +0.0000000000000000e+00 -8.3999992762774962e+00 +7.1898726329926480e-04 +0.0000000000000000e+00 +9.9999974152862392e-01
-8.4999999999999858e+00 +4.6436079181417638e+00 +0.0000000000000000e+00 -8.4999992501214372e+00 +7.2754655135577921e-04 +0.0000000000000000e+00 +9.9999973533797248e-01
-8.5999999999999854e+00 +4.6435347355226542e+00 +0.0000000000000000e+00 -8.5999992233426497e+00 +7.3610582908557843e-04 +0.0000000000000000e+00 +9.9999972907406720e-01
-8.6999999999999851e+00 +4.6434606969763026e+00 +0.0000000000000000e+00 -8.6999991959338097e+00 +7.4466509613983008e-04 +0.0000000000000000e+00 +9.9999972273690851e-01
-8.7999999999999847e+00 +4.6433858025037900e+00 +0.0000000000000000e+00 -8.7999991678875897e+00 +7.5322435226754156e-04 +0.0000000000000000e+00 +9.9999971632649698e-01
-8.8999999999999844e+00 +4.6433100521062185e+00 +0.0000000000000000e+00 -8.8999991391966660e+00 +7.6178359731555773e-04 +0.0000000000000000e+00 +9.9999970984283293e-01
-8.9999999999999840e+00 +4.6432334457846984e+00 +0.0000000000000000e+00 -8.9999991098537144e+00 +7.7034283122855824e-04 +0.0000000000000000e+00 +9.9999970328591681e-01
-9.0999999999999837e+00 +4.6431559835403426e+00 +0.0000000000000000e+00 -9.0999990798514077e+00 +7.7890205404905521e-04 +0.0000000000000000e+00 +9.9999969665574873e-01
-9.1999999999999833e+00 +4.6430776653742543e+00 +0.0000000000000000e+00 -9.1999990491824217e+00 +7.8746126591739036e-04 +0.0000000000000000e+00 +9.9999968995232891e-01
-9.2999999999999829e+00 +4.6429984912875168e+00 +0.0000000000000000e+00 -9.2999990178394309e+00 +7.9602046707173224e-04 +0.0000000000000000e+00 +9.9999968317565746e-01
-9.3999999999999826e+00 +4.6429184612811865e+00 +0.0000000000000000e+00 -9.3999989858151114e+00 +8.0457965784807336e-04 +0.0000000000000000e+00 +9.9999967632573439e-01
-9.4999999999999822e+00 +4.6428375753562792e+00 +0.0000000000000000e+00 -9.4999989531021374e+00 +8.1313883868022730e-04 +0.0000000000000000e+00 +9.9999966940255958e-01
-9.5999999999999819e+00 +4.6427558335137640e+00 +0.0000000000000000e+00 -9.5999989196931832e+00 +8.2169801009982532e-04 +0.0000000000000000e+00 +9.9999966240613281e-01
-9.6999999999999815e+00 +4.6426732357545522e+00 +0.0000000000000000e+00 -9.6999988855809232e+00 +8.3025717273631358e-04 +0.0000000000000000e+00 +9.9999965533645385e-01
-9.7999999999999812e+00 +4.6425897820794857e+00 +0.0000000000000000e+00 -9.7999988507580316e+00 +8.3881632731694952e-04 +0.0000000000000000e+00 +9.9999964819352227e-01
-9.8999999999999808e+00 +4.6425054724893302e+00 +0.0000000000000000e+00 -9.8999988152171845e+00 +8.4737547466679863e-04 +0.0000000000000000e+00 +9.9999964097733762e-01
-9.9999999999999805e+00 +4.6424203069847634e+00 +0.0000000000000000e+00 -9.9999987789510563e+00 +8.5593461570873089e-04 +0.0000000000000000e+00 +9.9999963368789935e-01
-1.0099999999999980e+01 +4.6423342855663652e+00 +0.0000000000000000e+00 -1.0099998741952321e+01 +8.6449375145490788e-04 +0.0000000000000000e+00 +9.9999962632520667e-01
-1.0199999999999980e+01 +4.6422474082346152e+00 +0.0000000000000000e+00 -1.0199998704213655e+01 +8.7305288291317164e-04 +0.0000000000000000e+00 +9.9999961888925881e-01
-1.0299999999999979e+01 +4.6421596749898955e+00 +0.0000000000000000e+00 -1.0299998665727731e+01 +8.8161201099343060e-04 +0.0000000000000000e+00 +9.9999961138005511e-01
-1.0399999999999979e+01 +4.6420710858325025e+00 +0.0000000000000000e+00 -1.0399998626487225e+01 +8.9017113649914525e-04 +0.0000000000000000e+00 +9.9999960379759500e-01
-1.0499999999999979e+01 +4.6419816407626584e+00 +0.0000000000000000e+00 -1.0499998586484809e+01 +8.9873026012732347e-04 +0.0000000000000000e+00 +9.9999959614187783e-01
-1.0599999999999978e+01 +4.6418913397805204e+00 +0.0000000000000000e+00 -1.0599998545713158e+01 +9.0728938246851620e-04 +0.0000000000000000e+00 +9.9999958841290315e-01
-1.0699999999999978e+01 +4.6418001828861915e+00 +0.0000000000000000e+00 -1.0699998504164947e+01 +9.1584850400681255e-04 +0.0000000000000000e+00 +9.9999958061067051e-01
-1.0799999999999978e+01 +4.6417081700797329e+00 +0.0000000000000000e+00 -1.0799998461832850e+01 +9.2440762511983526e-04 +0.0000000000000000e+00 +9.9999957273517959e-01
-1.0899999999999977e+01 +4.6416153013611723e+00 +0.0000000000000000e+00 -1.0899998418709540e+01 +9.3296674607873582e-04 +0.0000000000000000e+00 +9.9999956478643015e-01
-1.0999999999999977e+01 +4.6415215767305167e+00 +0.0000000000000000e+00 -1.0999998374787694e+01 +9.4152586704818945e-04 +0.0000000000000000e+00 +9.9999955676442209e-01
-1.1099999999999977e+01 +4.6414269961877608e+00 +0.0000000000000000e+00 -1.1099998330059984e+01 +9.5008498808639007e-04 +0.0000000000000000e+00 +9.9999954866915530e-01
-1.1199999999999976e+01 +4.6413315597328992e+00 +0.0000000000000000e+00 -1.1199998284519085e+01 +9.5864410914504514e-04 +0.0000000000000000e+00 +9.9999954050062989e-01
-1.1299999999999976e+01 +4.6412352673659365e+00 +0.0000000000000000e+00 -1.1299998238157668e+01 +9.6720323006937038e-04 +0.0000000000000000e+00 +9.9999953225884597e-01
-1.1399999999999975e+01 +4.6411381190868983e+00 +0.0000000000000000e+00 -1.1399998190968411e+01 +9.7576235059808434e-04 +0.0000000000000000e+00 +9.9999952394380376e-01
-1.1499999999999975e+01 +4.6410401148958424e+00 +0.0000000000000000e+00 -1.1499998142943987e+01 +9.8432147036340298e-04 +0.0000000000000000e+00 +9.9999951555550359e-01
-1.1599999999999975e+01 +4.6409412547928675e+00 +0.0000000000000000e+00 -1.1599998094077071e+01 +9.9288058889103383e-04 +0.0000000000000000e+00 +9.9999950709394603e-01
-1.1699999999999974e+01 +4.6408415387781252e+00 +0.0000000000000000e+00 -1.1699998044360335e+01 +1.0014397056001710e-03 +0.0000000000000000e+00 +9.9999949855913173e-01
