# field on trajectory
# s[mm] rx[mm] ry[mm] rz[mm] bx[T] by[T] bz[T]
0.0000000000000000e+00 -4.6467000000000001e+00 +0.0000000000000000e+00 +0.0000000000000000e+00 -4.8309001019428907e-03 +8.6277224829658952e-02 -5.3776675912047770e-04
1.0000000000000001e-01 -4.6466957050544924e+00 +0.0000000000000000e+00 +9.9999999877022946e-02 -4.8309168731499388e-03 +8.6277211819670158e-02 -5.3776398663013677e-04
2.0000000000000001e-01 -4.6466828202188664e+00 +0.0000000000000000e+00 +1.9999999901618376e-01 -4.8309341623362723e-03 +8.6277198708178418e-02 -5.3776142346595890e-04
3.0000000000000004e-01 -4.6466613454945227e+00 +0.0000000000000000e+00 +2.9999999667962057e-01 -4.8309519007701286e-03 +8.6277185535241427e-02 -5.3775896119588964e-04
4.0000000000000002e-01 -4.6466312808829304e+00 +0.0000000000000000e+00 +3.9999999212947190e-01 -4.8309700196896930e-03 +8.6277172340946201e-02 -5.3775649137248114e-04
5.0000000000000000e-01 -4.6465926263856243e+00 +0.0000000000000000e+00 +4.9999998462787659e-01 -4.8309884503119661e-03 +8.6277159165403655e-02 -5.3775390553361876e-04
5.9999999999999998e-01 -4.6465453820042022e+00 +0.0000000000000000e+00 +5.9999997343697387e-01 -4.8310071238416271e-03 +8.6277146048743106e-02 -5.3775109520324616e-04
6.9999999999999996e-01 -4.6464895477403179e+00 +0.0000000000000000e+00 +6.9999995781890334e-01 -4.8310259714798845e-03 +8.6277133031106720e-02 -5.3774795189209259e-04
7.9999999999999993e-01 -4.6464251235956784e+00 +0.0000000000000000e+00 +7.9999993703580485e-01 -4.8310449244333593e-03 +8.6277120152644271e-02 -5.3774436709840283e-04
8.9999999999999991e-01 -4.6463521095720415e+00 +0.0000000000000000e+00 +8.9999991034981885e-01 -4.8310639139229287e-03 +8.6277107453507446e-02 -5.3774023230866686e-04
9.9999999999999989e-01 -4.6462705056712092e+00 +0.0000000000000000e+00 +9.9999987702308601e-01 -4.8310828711925925e-03 +8.6277094973844490e-02 -5.3773543899835222e-04
1.0999999999999999e+00 -4.6461803118950273e+00 +0.0000000000000000e+00 +1.0999998363177472e+00 -4.8311017275183303e-03 +8.6277082753794754e-02 -5.3772987863263868e-04
1.2000000000000000e+00 -4.6460815282453760e+00 +0.0000000000000000e+00 +1.1999997874959440e+00 -4.8311204142169632e-03 +8.6277070833483072e-02 -5.3772344266715449e-04
1.3000000000000000e+00 -4.6459741547241720e+00 +0.0000000000000000e+00 +1.2999997298198180e+00 -4.8311388626549974e-03 +8.6277059253014543e-02 -5.3771602254871652e-04
1.4000000000000001e+00 -4.6458581913333594e+00 +0.0000000000000000e+00 +1.3999996625515112e+00 -4.8311570042574954e-03 +8.6277048052468872e-02 -5.3770750971607036e-04
1.5000000000000002e+00 -4.6457336380749084e+00 +0.0000000000000000e+00 +1.4999995849531660e+00 -4.8311747705169121e-03 +8.6277037271894896e-02 -5.3769779560063644e-04
1.6000000000000003e+00 -4.6456004949508118e+00 +0.0000000000000000e+00 +1.5999994962869251e+00 -4.8311920930019557e-03 +8.6277026951305222e-02 -5.3768677162725602e-04
1.7000000000000004e+00 -4.6454587619630789e+00 +0.0000000000000000e+00 +1.6999993958149313e+00 -4.8312089033664338e-03 +8.6277017130670666e-02 -5.3767432921494364e-04
1.8000000000000005e+00 -4.6453084391137329e+00 +0.0000000000000000e+00 +1.7999992827993281e+00 -4.8312251333580934e-03 +8.6277007849914794e-02 -5.3766035977763967e-04
1.9000000000000006e+00 -4.6451495264048068e+00 +0.0000000000000000e+00 +1.8999991565022589e+00 -4.8312407148274764e-03 +8.6276999148908504e-02 -5.3764475472496914e-04
2.0000000000000004e+00 -4.6449820238383390e+00 +0.0000000000000000e+00 +1.9999990161858674e+00 -4.8312555797367512e-03 +8.6276991067464337e-02 -5.3762740546300252e-04
2.1000000000000005e+00 -4.6448059314163697e+00 +0.0000000000000000e+00 +2.0999988611122977e+00 -4.8312696761836161e-03 +8.6276983635283605e-02 -5.3760826255339436e-04
2.2000000000000006e+00 -4.6446212491409380e+00 +0.0000000000000000e+00 +2.1999986905436937e+00 -4.8312830164013920e-03 +8.6276976841823366e-02 -5.3758751320467034e-04
2.3000000000000007e+00 -4.6444279770140833e+00 +0.0000000000000000e+00 +2.2999985037421999e+00 -4.8312956286153093e-03 +8.6276970666468111e-02 -5.3756540381042568e-04
2.4000000000000008e+00 -4.6442261150378465e+00 +0.0000000000000000e+00 +2.3999982999699609e+00 -4.8313075410029134e-03 +8.6276965088582638e-02 -5.3754218079309546e-04
2.5000000000000009e+00 -4.6440156632142733e+00 +0.0000000000000000e+00 +2.4999980784891211e+00 -4.8313187816834743e-03 +8.6276960087512664e-02 -5.3751809060761946e-04
2.6000000000000010e+00 -4.6437966215454143e+00 +0.0000000000000000e+00 +2.5999978385618259e+00 -4.8313293787073681e-03 +8.6276955642585404e-02 -5.3749337974510136e-04
2.7000000000000011e+00 -4.6435689900333283e+00 +0.0000000000000000e+00 +2.6999975794502196e+00 -4.8313393600454948e-03 +8.6276951733109938e-02 -5.3746829473645457e-04
2.8000000000000012e+00 -4.6433327686800840e+00 +0.0000000000000000e+00 +2.7999973004164476e+00 -4.8313487535786874e-03 +8.6276948338377998e-02 -5.3744308215604051e-04
2.9000000000000012e+00 -4.6430879574877633e+00 +0.0000000000000000e+00 +2.8999970007226548e+00 -4.8313575870871242e-03 +8.6276945437664496e-02 -5.3741798862529393e-04
3.0000000000000013e+00 -4.6428345564584603e+00 +0.0000000000000000e+00 +2.9999966796309869e+00 -4.8313658882397619e-03 +8.6276943010227869e-02 -5.3739326081633624e-04
3.1000000000000014e+00 -4.6425725655942882e+00 +0.0000000000000000e+00 +3.0999963364035894e+00 -4.8313736845837507e-03 +8.6276941035310944e-02 -5.3736914545557683e-04
3.2000000000000015e+00 -4.6423019848973759e+00 +0.0000000000000000e+00 +3.1999959703026075e+00 -4.8313810035338842e-03 +8.6276939492141200e-02 -5.3734588932729838e-04
3.3000000000000016e+00 -4.6420228143698736e+00 +0.0000000000000000e+00 +3.2999955805901870e+00 -4.8313878723620285e-03 +8.6276938359931568e-02 -5.3732373927723083e-04
3.4000000000000017e+00 -4.6417350540139548e+00 +0.0000000000000000e+00 +3.3999951665284733e+00 -4.8313943181865831e-03 +8.6276937617880772e-02 -5.3730294221610768e-04
3.5000000000000018e+00 -4.6414387038318159e+00 +0.0000000000000000e+00 +3.4999947273796126e+00 -4.8314003679619383e-03 +8.6276937245174060e-02 -5.3728374512320646e-04
3.6000000000000019e+00 -4.6411337638256818e+00 +0.0000000000000000e+00 +3.5999942624057506e+00 -4.8314060484679344e-03 +8.6276937220983493e-02 -5.3726639504987368e-04
3.7000000000000020e+00 -4.6408202339978040e+00 +0.0000000000000000e+00 +3.6999937708690336e+00 -4.8314113862993509e-03 +8.6276937524468897e-02 -5.3725113912303090e-04
3.8000000000000020e+00 -4.6404981143504669e+00 +0.0000000000000000e+00 +3.7999932520316073e+00 -4.8314164078553752e-03 +8.6276938134778020e-02 -5.3723822454866275e-04
3.9000000000000021e+00 -4.6401674048859860e+00 +0.0000000000000000e+00 +3.8999927051556185e+00 -4.8314211393291132e-03 +8.6276939031047328e-02 -5.3722789861528519e-04
4.0000000000000018e+00 -4.6398281056067123e+00 +0.0000000000000000e+00 +3.9999921295032128e+00 -4.8314256066970818e-03 +8.6276940192402354e-02 -5.3722040869739519e-04
4.1000000000000014e+00 -4.6394802165150351e+00 +0.0000000000000000e+00 +4.0999915243365370e+00 -4.8314298329902687e-03 +8.6276941591781564e-02 -5.3721591479354263e-04
4.2000000000000011e+00 -4.6391237376133807e+00 +0.0000000000000000e+00 +4.1999908889177373e+00 -4.8314338302248875e-03 +8.6276943177399770e-02 -5.3721422699286466e-04
4.3000000000000007e+00 -4.6387586689042237e+00 +0.0000000000000000e+00 +4.2999902225089608e+00 -4.8314376077302056e-03 +8.6276944891281931e-02 -5.3721506780938144e-04
4.4000000000000004e+00 -4.6383850103900865e+00 +0.0000000000000000e+00 +4.3999895243723541e+00 -4.8314411748995676e-03 +8.6276946675443597e-02 -5.3721815966775981e-04
4.5000000000000000e+00 -4.6380027620735493e+00 +0.0000000000000000e+00 +4.4999887937700640e+00 -4.8314445411977514e-03 +8.6276948471891171e-02 -5.3722322489646341e-04
4.5999999999999996e+00 -4.6376119239572544e+00 +0.0000000000000000e+00 +4.5999880299642371e+00 -4.8314477161683191e-03 +8.6276950222622856e-02 -5.3722998572092477e-04
4.6999999999999993e+00 -4.6372124960439116e+00 +0.0000000000000000e+00 +4.6999872322170209e+00 -4.8314507094409688e-03 +8.6276951869629026e-02 -5.3723816425673462e-04
4.7999999999999989e+00 -4.6368044783363045e+00 +0.0000000000000000e+00 +4.7999863997905639e+00 -4.8314535307388768e-03 +8.6276953354892966e-02 -5.3724748250285443e-04
4.8999999999999986e+00 -4.6363878708372965e+00 +0.0000000000000000e+00 +4.8999855319470127e+00 -4.8314561898860327e-03 +8.6276954620391436e-02 -5.3725766233484850e-04
4.9999999999999982e+00 -4.6359626735498365e+00 +0.0000000000000000e+00 +4.9999846279485158e+00 -4.8314586968145820e-03 +8.6276955608095410e-02 -5.3726842549814218e-04
5.0999999999999979e+00 -4.6355288864769637e+00 +0.0000000000000000e+00 +5.0999836870572226e+00 -4.8314610615721463e-03 +8.6276956259970602e-02 -5.3727949360130023e-04
5.1999999999999975e+00 -4.6350865096218143e+00 +0.0000000000000000e+00 +5.1999827085352814e+00 -4.8314632943291542e-03 +8.6276956517978301e-02 -5.3729058810933299e-04
5.2999999999999972e+00 -4.6346355429876267e+00 +0.0000000000000000e+00 +5.2999816916448417e+00 -4.8314654053861544e-03 +8.6276956324075921e-02 -5.3730143033702622e-04
5.3999999999999968e+00 -4.6341759865777492e+00 +0.0000000000000000e+00 +5.3999806356480526e+00 -4.8314674051811298e-03 +8.6276955620217768e-02 -5.3731174144229846e-04
5.4999999999999964e+00 -4.6337078403956422e+00 +0.0000000000000000e+00 +5.4999795398070654e+00 -4.8314693042968036e-03 +8.6276954348355861e-02 -5.3732124241958647e-04
5.5999999999999961e+00 -4.6332311044448877e+00 +0.0000000000000000e+00 +5.5999784033840303e+00 -4.8314711134679385e-03 +8.6276952450440453e-02 -5.3732965409325744e-04
5.6999999999999957e+00 -4.6327457787291930e+00 +0.0000000000000000e+00 +5.6999772256410992e+00 -4.8314728435886242e-03 +8.6276949868420938e-02 -5.3733669711105163e-04
5.7999999999999954e+00 -4.6322518632523959e+00 +0.0000000000000000e+00 +5.7999760058404242e+00 -4.8314745057195796e-03 +8.6276946544246710e-02 -5.3734209193755729e-04
5.8999999999999950e+00 -4.6317493580184728e+00 +0.0000000000000000e+00 +5.8999747432441589e+00 -4.8314761110954067e-03 +8.6276942419867705e-02 -5.3734555884771295e-04
5.9999999999999947e+00 -4.6312382630315421e+00 +0.0000000000000000e+00 +5.9999734371144564e+00 -4.8314776711318877e-03 +8.6276937437235468e-02 -5.3734681792034567e-04
6.0999999999999943e+00 -4.6307185782958715e+00 +0.0000000000000000e+00 +6.0999720867134721e+00 -4.8314791941693460e-03 +8.6276931546146490e-02 -5.3734566797393674e-04
6.1999999999999940e+00 -4.6301903038158825e+00 +0.0000000000000000e+00 +6.1999706913033608e+00 -4.8314806756254965e-03 +8.6276924727783255e-02 -5.3734222373169832e-04
6.2999999999999936e+00 -4.6296534395961517e+00 +0.0000000000000000e+00 +6.2999692501462796e+00 -4.8314821077049949e-03 +8.6276916971150322e-02 -5.3733667903077488e-04
6.3999999999999932e+00 -4.6291079856414132e+00 +0.0000000000000000e+00 +6.3999677625043860e+00 -4.8314834826565798e-03 +8.6276908265214627e-02 -5.3732922778138839e-04
6.4999999999999929e+00 -4.6285539419565582e+00 +0.0000000000000000e+00 +6.4999662276398391e+00 -4.8314847927739078e-03 +8.6276898598904556e-02 -5.3732006397131141e-04
6.5999999999999925e+00 -4.6279913085466378e+00 +0.0000000000000000e+00 +6.5999646448147988e+00 -4.8314860303963827e-03 +8.6276887961108537e-02 -5.3730938167032341e-04
6.6999999999999922e+00 -4.6274200854168619e+00 +0.0000000000000000e+00 +6.6999630132914252e+00 -4.8314871879099625e-03 +8.6276876340673977e-02 -5.3729737503464858e-04
6.7999999999999918e+00 -4.6268402725726023e+00 +0.0000000000000000e+00 +6.7999613323318808e+00 -4.8314882577479646e-03 +8.6276863726405945e-02 -5.3728423831137656e-04
6.8999999999999915e+00 -4.6262518700193933e+00 +0.0000000000000000e+00 +6.8999596011983293e+00 -4.8314892323918701e-03 +8.6276850107066122e-02 -5.3727016584286425e-04
6.9999999999999911e+00 -4.6256548777629325e+00 +0.0000000000000000e+00 +6.9999578191529359e+00 -4.8314901043720821e-03 +8.6276835471371285e-02 -5.3725535207111666e-04
7.0999999999999908e+00 -4.6250492958090819e+00 +0.0000000000000000e+00 +7.0999559854578660e+00 -4.8314908662687251e-03 +8.6276819807992192e-02 -5.3723999154215102e-04
7.1999999999999904e+00 -4.6244351241638695e+00 +0.0000000000000000e+00 +7.1999540993752866e+00 -4.8314915107123850e-03 +8.6276803105552205e-02 -5.3722427891033731e-04
7.2999999999999901e+00 -4.6238123628334904e+00 +0.0000000000000000e+00 +7.2999521601673667e+00 -4.8314920303848697e-03 +8.6276785352625993e-02 -5.3720840894272025e-04
7.3999999999999897e+00 -4.6231810118243066e+00 +0.0000000000000000e+00 +7.3999501670962768e+00 -4.8314924180199396e-03 +8.6276766537738137e-02 -5.3719257652331761e-04
7.4999999999999893e+00 -4.6225410711428507e+00 +0.0000000000000000e+00 +7.4999481194241895e+00 -4.8314926664040367e-03 +8.6276746649361816e-02 -5.3717697665739883e-04
7.5999999999999890e+00 -4.6218925407958240e+00 +0.0000000000000000e+00 +7.5999460164132771e+00 -4.8314927683769937e-03 +8.6276725675917251e-02 -5.3716180447573806e-04
7.6999999999999886e+00 -4.6212354207901001e+00 +0.0000000000000000e+00 +7.6999438573257155e+00 -4.8314927168327353e-03 +8.6276703605770486e-02 -5.3714725523884609e-04
7.7999999999999883e+00 -4.6205697111327249e+00 +0.0000000000000000e+00 +7.7999416414236808e+00 -4.8314925047199652e-03 +8.6276680427231717e-02 -5.3713352434117830e-04
7.8999999999999879e+00 -4.6198954118309175e+00 +0.0000000000000000e+00 +7.8999393679693517e+00 -4.8314921250428447e-03 +8.6276656128553980e-02 -5.3712080731531571e-04
7.9999999999999876e+00 -4.6192125228920737e+00 +0.0000000000000000e+00 +7.9999370362249085e+00 -4.8314915708616455e-03 +8.6276630697931497e-02 -5.3710929983612481e-04
8.0999999999999872e+00 -4.6185210443237636e+00 +0.0000000000000000e+00 +8.0999346454525334e+00 -4.8314908407046924e-03 +8.6276604121231823e-02 -5.3709915437869047e-04
8.1999999999999869e+00 -4.6178209761337357e+00 +0.0000000000000000e+00 +8.1999321949144104e+00 -4.8314899547910652e-03 +8.6276576375258263e-02 -5.3709034981147812e-04
8.2999999999999865e+00 -4.6171123183299176e+00 +0.0000000000000000e+00 +8.2999296838727261e+00 -4.8314889386824669e-03 +8.6276547434699868e-02 -5.3708282152309568e-04
8.3999999999999861e+00 -4.6163950709204196e+00 +0.0000000000000000e+00 +8.3999271115896672e+00 -4.8314878178346539e-03 +8.6276517274432959e-02 -5.3707650492198090e-04
8.4999999999999858e+00 -4.6156692339135370e+00 +0.0000000000000000e+00 +8.4999244773274238e+00 -4.8314866175936735e-03 +8.6276485869527242e-02 -5.3707133543680460e-04
8.5999999999999854e+00 -4.6149348073177521e+00 +0.0000000000000000e+00 +8.5999217803481880e+00 -4.8314853631921100e-03 +8.6276453195252331e-02 -5.3706724851687994e-04
8.6999999999999851e+00 -4.6141917911417369e+00 +0.0000000000000000e+00 +8.6999190199141552e+00 -4.8314840797453636e-03 +8.6276419227084220e-02 -5.3706417963257777e-04
8.7999999999999847e+00 -4.6134401853943565e+00 +0.0000000000000000e+00 +8.7999161952875209e+00 -4.8314827922479381e-03 +8.6276383940711715e-02 -5.3706206427574536e-04
8.8999999999999844e+00 -4.6126799900846693e+00 +0.0000000000000000e+00 +8.8999133057304860e+00 -4.8314815255697564e-03 +8.6276347312043186e-02 -5.3706083796013380e-04
8.9999999999999840e+00 -4.6119112052219320e+00 +0.0000000000000000e+00 +8.9999103505052496e+00 -4.8314803044524988e-03 +8.6276309317212599e-02 -5.3706043622182842e-04
9.0999999999999837e+00 -4.6111338308155991e+00 +0.0000000000000000e+00 +9.0999073288740160e+00 -4.8314791535059446e-03 +8.6276269932586497e-02 -5.3706079461968668e-04
9.1999999999999833e+00 -4.6103478668753279e+00 +0.0000000000000000e+00 +9.1999042400989932e+00 -4.8314780972043714e-03 +8.6276229134770413e-02 -5.3706184873578155e-04
9.2999999999999829e+00 -4.6095533134109798e+00 +0.0000000000000000e+00 +9.2999010834423892e+00 -4.8314771598829444e-03 +8.6276186900615351e-02 -5.3706353417585194e-04
9.3999999999999826e+00 -4.6087501704326224e+00 +0.0000000000000000e+00 +9.3998978581664154e+00 -4.8314763657341360e-03 +8.6276143207224418e-02 -5.3706578656975777e-04
9.4999999999999822e+00 -4.6079384379505317e+00 +0.0000000000000000e+00 +9.4998945635332870e+00 -4.8314757388041897e-03 +8.6276098031959542e-02 -5.3706854157194324e-04
9.5999999999999819e+00 -4.6071181159751946e+00 +0.0000000000000000e+00 +9.5998911988052207e+00 -4.8314753029895787e-03 +8.6276051352447994e-02 -5.3707173486190643e-04
9.6999999999999815e+00 -4.6062892045173118e+00 +0.0000000000000000e+00 +9.6998877632444369e+00 -4.8314750820335085e-03 +8.6276003146589092e-02 -5.3707530214467433e-04
9.7999999999999812e+00 -4.6054517035877982e+00 +0.0000000000000000e+00 +9.7998842561131596e+00 -4.8314750995224372e-03 +8.6275953392560834e-02 -5.3707917915128624e-04
9.8999999999999808e+00 -4.6046056131977871e+00 +0.0000000000000000e+00 +9.8998806766736145e+00 -4.8314753788826301e-03 +8.6275902068826654e-02 -5.3708330163928359e-04
9.9999999999999805e+00 -4.6037509333586311e+00 +0.0000000000000000e+00 +9.9998770241880308e+00 -4.8314759433767205e-03 +8.6275849154142117e-02 -5.3708760539320790e-04
1.0099999999999980e+01 -4.6028876640819050e+00 +0.0000000000000000e+00 +1.0099873297918641e+01 -4.8314768238390425e-03 +8.6275794682407717e-02 -5.3709203382405713e-04
1.0199999999999980e+01 -4.6020158053793985e+00 +0.0000000000000000e+00 +1.0199869497127683e+01 -4.8314780820589995e-03 +8.6275738907902508e-02 -5.3709656083413004e-04
1.0299999999999979e+01 -4.6011353572630940e+00 +0.0000000000000000e+00 +1.0299865621077393e+01 -4.8314797876046027e-03 +8.6275682140127291e-02 -5.3710116788440278e-04
1.0399999999999979e+01 -4.6002463197451382e+00 +0.0000000000000000e+00 +1.0399861669030015e+01 -4.8314820100405506e-03 +8.6275624688519001e-02 -5.3710583632540158e-04
1.0499999999999979e+01 -4.5993486928378076e+00 +0.0000000000000000e+00 +1.0499857640247793e+01 -4.8314848189284039e-03 +8.6275566862447250e-02 -5.3711054739443321e-04
1.0599999999999978e+01 -4.5984424765534788e+00 +0.0000000000000000e+00 +1.0599853533992974e+01 -4.8314882838267331e-03 +8.6275508971211223e-02 -5.3711528221282387e-04
1.0699999999999978e+01 -4.5975276709045998e+00 +0.0000000000000000e+00 +1.0699849349527806e+01 -4.8314924742912761e-03 +8.6275451324036440e-02 -5.3712002178316748e-04
1.0799999999999978e+01 -4.5966042759036565e+00 +0.0000000000000000e+00 +1.0799845086114541e+01 -4.8314974598750665e-03 +8.6275394230071370e-02 -5.3712474698658450e-04
1.0899999999999977e+01 -4.5956722915631438e+00 +0.0000000000000000e+00 +1.0899840743015430e+01 -4.8315033101285591e-03 +8.6275337998384272e-02 -5.3712943857998831e-04
1.0999999999999977e+01 -4.5947317178955345e+00 +0.0000000000000000e+00 +1.0999836319492728e+01 -4.8315100945997462e-03 +8.6275282937959705e-02 -5.3713407719336312e-04
1.1099999999999977e+01 -4.5937825549132469e+00 +0.0000000000000000e+00 +1.1099831814808690e+01 -4.8315178828342402e-03 +8.6275229357695146e-02 -5.3713864332704999e-04
1.1199999999999976e+01 -4.5928248026286163e+00 +0.0000000000000000e+00 +1.1199827228225569e+01 -4.8315267443753938e-03 +8.6275177566397757e-02 -5.3714311734904597e-04
1.1299999999999976e+01 -4.5918584610538620e+00 +0.0000000000000000e+00 +1.1299822559005623e+01 -4.8315367487643483e-03 +8.6275127872780702e-02 -5.3714747949230998e-04
1.1399999999999975e+01 -4.5908835302010598e+00 +0.0000000000000000e+00 +1.1399817806411106e+01 -4.8315479655401091e-03 +8.6275080585459921e-02 -5.3715170985208166e-04
1.1499999999999975e+01 -4.5899000100821077e+00 +0.0000000000000000e+00 +1.1499812969704273e+01 -4.8315604642395951e-03 +8.6275036012950279e-02 -5.3715578838320951e-04
1.1599999999999975e+01 -4.5889079007086968e+00 +0.0000000000000000e+00 +1.1599808048147377e+01 -4.8315743143976814e-03 +8.6274994463662449e-02 -5.3715969489749106e-04
1.1699999999999974e+01 -4.5879072020922820e+00 +0.0000000000000000e+00 +1.1699803041002673e+01 -4.8315895855472104e-03 +8.6274956245898968e-02 -5.3716340906102378e-04
1.1799999999999974e+01 -4.5868979142440489e+00 +0.0000000000000000e+00 +1.1799797947532410e+01 -4.8316063472190205e-03 +8.6274921667850848e-02 -5.3716691039156514e-04
