# multipoles
# s[mm] polynom_b[n=0][T/m^n] polynom_b[n=1][T/m^n] polynom_b[n=2][T/m^n] polynom_b[n=3][T/m^n] polynom_b[n=4][T/m^n] polynom_b[n=5][T/m^n] polynom_b[n=6][T/m^n] 
+0.0000000000000000e+00 -1.7316191507191697e-01 +1.4356554726113917e-03 +1.3408287113517622e-01 -1.6218718662095455e+01 -9.1334858402318253e+02 +8.1868174907387162e+04 +3.0276481176076615e+06 
-1.0000000000000001e-01 -1.7316196736661496e-01 +1.4328895085647790e-03 +1.3470010491690002e-01 -1.6214078909641341e+01 -9.1111534449909141e+02 +8.1906617061369034e+04 +2.9842432417905130e+06 
-2.0000000000000001e-01 -1.7316201539629969e-01 +1.4299182923689273e-03 +1.3522936409920117e-01 -1.6195667832824014e+01 -9.0849405152840200e+02 +8.1862490341199198e+04 +2.9407336756125106e+06 
-3.0000000000000004e-01 -1.7316205945829735e-01 +1.4267864515062495e-03 +1.3567360944926818e-01 -1.6165012745274176e+01 -9.0546651050303046e+02 +8.1743991278140034e+04 +2.8970064778577057e+06 
-4.0000000000000002e-01 -1.7316209984992414e-01 +1.4235386198410401e-03 +1.3603579895022677e-01 -1.6123640978445874e+01 -9.0201447658775407e+02 +8.1559316026947898e+04 +2.8529484954027496e+06 
-5.0000000000000000e-01 -1.7316213686848100e-01 +1.4202194383809963e-03 +1.3631888714862833e-01 -1.6073079923438424e+01 -8.9811963967035308e+02 +8.1316660633734791e+04 +2.8084462816256001e+06 
-5.9999999999999998e-01 -1.7316217081126520e-01 +1.4168735543818149e-03 +1.3652582658819915e-01 -1.6014857033393522e+01 -8.9376364945892635e+02 +8.1024221103298463e+04 +2.7633862076040534e+06 
-6.9999999999999996e-01 -1.7316220197556986e-01 +1.4135456219402460e-03 +1.3665956779776417e-01 -1.5950499863206167e+01 -8.8892811352637978e+02 +8.0690193664362960e+04 +2.7176544454106544e+06 
-7.9999999999999993e-01 -1.7316223065869832e-01 +1.4102803007247984e-03 +1.3672306102887738e-01 -1.5881536057243038e+01 -8.8359462714873280e+02 +8.0322774739738990e+04 +2.6711370980639923e+06 
-8.9999999999999991e-01 -1.7316225715796618e-01 +1.4071222572138403e-03 +1.3671925657863798e-01 -1.5809493410088438e+01 -8.7774477805800848e+02 +7.9930161340585153e+04 +2.6237202161281975e+06 
-9.9999999999999989e-01 -1.7316228177070217e-01 +1.4041161628298197e-03 +1.3665110491792315e-01 -1.5735899839039279e+01 -8.7136014669788096e+02 +7.9520550955166618e+04 +2.5752897903331933e+06 
-1.0999999999999999e+00 -1.7316230479426234e-01 +1.4013066958681909e-03 +1.3652155836548685e-01 -1.5662283459989325e+01 -8.6442233495936500e+02 +7.9102142014034122e+04 +2.5257318768603979e+06 
-1.2000000000000000e+00 -1.7316232652602748e-01 +1.3987385390708672e-03 +1.3633357094580090e-01 -1.5590172546099984e+01 -8.5691296264089920e+02 +7.8683133708248788e+04 +2.4749325758716967e+06 
-1.3000000000000000e+00 -1.7316234726341717e-01 +1.3964563813947267e-03 +1.3609009996683488e-01 -1.5521095601484129e+01 -8.4881369398602817e+02 +7.8271726448978050e+04 +2.4227781452687834e+06 
-1.4000000000000001e+00 -1.7316236730388915e-01 +1.3945049163413259e-03 +1.3579410616216353e-01 -1.5456581337356834e+01 -8.4010623906828107e+02 +7.7876121772497339e+04 +2.3691550008853115e+06 
-1.5000000000000002e+00 -1.7316238694494548e-01 +1.3929288426944805e-03 +1.3544855423198107e-01 -1.5398158717742563e+01 -8.3077236114246023e+02 +7.7504522643999415e+04 +2.3139497415833408e+06 
-1.6000000000000003e+00 -1.7316240648414283e-01 +1.3917728642814172e-03 +1.3505641432512244e-01 -1.5347356978650980e+01 -8.2079390338098619e+02 +7.7165133616644060e+04 +2.2570492688415232e+06 
-1.7000000000000004e+00 -1.7316242621909245e-01 +1.3910816891216163e-03 +1.3462066191547878e-01 -1.5305705626493372e+01 -8.1015278329324281e+02 +7.6866160858131494e+04 +2.1983407492633965e+06 
-1.8000000000000005e+00 -1.7316244644747303e-01 +1.3909000300788769e-03 +1.3414427962497000e-01 -1.5274734482259063e+01 -7.9883102686380346e+02 +7.6615812451061138e+04 +2.1377117722955970e+06 
-1.9000000000000006e+00 -1.7316246746702801e-01 +1.3912726045480356e-03 +1.3363025653783722e-01 -1.5255973695103039e+01 -7.8681075099849204e+02 +7.6422298506569306e+04 +2.0750502525549973e+06 
-2.0000000000000004e+00 -1.7316248957558031e-01 +1.3922441261572372e-03 +1.3308159022563679e-01 -1.5250953181928207e+01 -7.7407415707089172e+02 +7.6293827206968272e+04 +2.0102442548707468e+06 
-2.1000000000000005e+00 -1.7316251300773275e-01 +1.3938456636975315e-03 +1.3250190691833766e-01 -1.5260701103691851e+01 -7.6062084744416791e+02 +7.6235694661640475e+04 +1.9432338184701395e+06 
-2.2000000000000006e+00 -1.7316253772540946e-01 +1.3960346648166154e-03 +1.3189790940096149e-01 -1.5284052073195495e+01 -7.4657266283839419e+02 +7.6241779115340716e+04 +1.8744871078958705e+06 
-2.3000000000000007e+00 -1.7316256361852000e-01 +1.3987440150944883e-03 +1.3127763383833435e-01 -1.5319191897271322e+01 -7.3210196509180389e+02 +7.6302913462936194e+04 +1.8047038974452119e+06 
-2.4000000000000008e+00 -1.7316259057695765e-01 +1.4019065797137521e-03 +1.3064911752790506e-01 -1.5364305838003567e+01 -7.1738116611328087e+02 +7.6409929853960333e+04 +1.7345840979852770e+06 
-2.5000000000000009e+00 -1.7316261849057937e-01 +1.4054552165029795e-03 +1.3002039367268700e-01 -1.5417578853735405e+01 -7.0258261810783301e+02 +7.6553658650114900e+04 +1.6648274070250972e+06 
-2.6000000000000010e+00 -1.7316264724919092e-01 +1.4093227755045160e-03 +1.2939948963707956e-01 -1.5477195567690142e+01 -6.8787858422930526e+02 +7.6724928235938787e+04 +1.5961331828344476e+06 
-2.7000000000000011e+00 -1.7316267674254535e-01 +1.4134420982447424e-03 +1.2879442701042523e-01 -1.5541340232956536e+01 -6.7344124318775050e+02 +7.6914564823256864e+04 +1.5292004777628121e+06 
-2.8000000000000012e+00 -1.7316270686033758e-01 +1.4177460156443785e-03 +1.2821322105465324e-01 -1.5608196655748070e+01 -6.5944268197753331e+02 +7.7113392008633586e+04 +1.4647280145528715e+06 
-2.9000000000000012e+00 -1.7316273749218894e-01 +1.4221673474698483e-03 +1.2766387897725659e-01 -1.5675948164203879e+01 -6.4605486739880155e+02 +7.7312230595559973e+04 +1.4034140664782431e+06 
-3.0000000000000013e+00 -1.7316276852764423e-01 +1.4266389019830553e-03 +1.2715439969977266e-01 -1.5742777580894913e+01 -6.3344964402108224e+02 +7.7501898431734109e+04 +1.3459564559035844e+06 
-3.1000000000000014e+00 -1.7316279985616836e-01 +1.4310934733607807e-03 +1.2669277365464046e-01 -1.5806867135326275e+01 -6.2179873483842141e+02 +7.7673209914123261e+04 +1.2930525723591065e+06 
-3.2000000000000015e+00 -1.7316283136713570e-01 +1.4354638417294857e-03 +1.2628698158347837e-01 -1.5866398446191779e+01 -6.1127372117350376e+02 +7.7816975879213627e+04 +1.2453992871904769e+06 
-3.3000000000000016e+00 -1.7316286294981870e-01 +1.4396827718378517e-03 +1.2594499336377088e-01 -1.5919552469402202e+01 -6.0204602465925063e+02 +7.7924003309032239e+04 +1.2036928821121375e+06 
-3.4000000000000017e+00 -1.7316289449338534e-01 +1.4436830123488360e-03 +1.2567476771601671e-01 -1.5964509460657073e+01 -5.9428690391630357e+02 +7.7985095115534961e+04 +1.1686290423884855e+06 
-3.5000000000000018e+00 -1.7316292588689192e-01 +1.4473972932544633e-03 +1.2548425167934160e-01 -1.5999448885962053e+01 -5.8816744989914230e+02 +7.7991049625047410e+04 +1.1409028512995304e+06 
-3.6000000000000019e+00 -1.7316295701927759e-01 +1.4507583270680436e-03 +1.2538137995545820e-01 -1.6022549439148392e+01 -5.8385857543497025e+02 +7.7932660678994653e+04 +1.1212087484150315e+06 
-3.7000000000000020e+00 -1.7316298777934780e-01 +1.4536988064406898e-03 +1.2537407303790898e-01 -1.6031988959520714e+01 -5.8153098377644005e+02 +7.7800717165184033e+04 +1.1102403947888585e+06 
-3.8000000000000020e+00 -1.7316301805577713e-01 +1.4561514024948958e-03 +1.2547023772580110e-01 -1.6025944362491121e+01 -5.8135518148305357e+02 +7.7586002604213543e+04 +1.1086907443074060e+06 
-3.9000000000000021e+00 -1.7316304773709784e-01 +1.4580487658638164e-03 +1.2567776600051594e-01 -1.6002591661572414e+01 -5.8350146173865994e+02 +7.7279295297117555e+04 +1.1172519799973776e+06 
-4.0000000000000018e+00 -1.7316307671169900e-01 +1.4593236132638251e-03 +1.2600454125834182e-01 -1.5960111577858136e+01 -5.8814047291408724e+02 +7.6871404590693259e+04 +1.1366193410903830e+06 
-4.1000000000000014e+00 -1.7316310489923092e-01 +1.4599209691088320e-03 +1.2645674602569998e-01 -1.5897287184410622e+01 -5.9542805864253637e+02 +7.6356866849330487e+04 +1.1674877538466435e+06 
-4.2000000000000011e+00 -1.7316313238483058e-01 +1.4598637990301643e-03 +1.2703293909911467e-01 -1.5815403307191332e+01 -6.0533102329572750e+02 +7.5743635224637314e+04 +1.2097117738326224e+06 
-4.3000000000000007e+00 -1.7316315930229567e-01 +1.4592085219197520e-03 +1.2772817474868939e-01 -1.5716674057963317e+01 -6.1771254359850252e+02 +7.5044041654753804e+04 +1.2626491284493918e+06 
-4.4000000000000004e+00 -1.7316318578535170e-01 +1.4580117155848379e-03 +1.2853747300878046e-01 -1.5603318331269715e+01 -6.3243483649854443e+02 +7.4270427031031271e+04 +1.3256537343129995e+06 
-4.5000000000000000e+00 -1.7316321196782178e-01 +1.4563299547716451e-03 +1.2945586860497471e-01 -1.5477555100264532e+01 -6.4936035907267103e+02 +7.3435132949832172e+04 +1.3980804554052716e+06 
-4.5999999999999996e+00 -1.7316323798361630e-01 +1.4542198108663210e-03 +1.3047840960114696e-01 -1.5341603427806648e+01 -6.6835177881035668e+02 +7.2550501806246190e+04 +1.4792849463310016e+06 
-4.6999999999999993e+00 -1.7316326396675910e-01 +1.4517378505030940e-03 +1.3160016074452788e-01 -1.5197682437603319e+01 -6.8927203363851402e+02 +7.1628876636277899e+04 +1.5686239213980872e+06 
-4.7999999999999989e+00 -1.7316329005138081e-01 +1.4489406384146555e-03 +1.3281620285193230e-01 -1.5048011412937802e+01 -7.1198431773378354e+02 +7.0682601707247159e+04 +1.6654550746564774e+06 
-4.8999999999999986e+00 -1.7316331637173252e-01 +1.4458847364497444e-03 +1.3412163449848588e-01 -1.4894809785005416e+01 -7.3635210999398726e+02 +6.9724022473195480e+04 +1.7691371998145641e+06 
-4.9999999999999982e+00 -1.7316334306219019e-01 +1.4426267023944629e-03 +1.3551157272464739e-01 -1.4740297110596059e+01 -7.6223918420133487e+02 +6.8765485454083711e+04 +1.8790302236897948e+06 
-5.0999999999999979e+00 -1.7316337025726478e-01 +1.4392230924061410e-03 +1.3698115437782138e-01 -1.4586693160157134e+01 -7.8950963131613037e+02 +6.7819338770158691e+04 +1.9944952975952316e+06 
-5.1999999999999975e+00 -1.7316339809160858e-01 +1.4357304602037764e-03 +1.3852553690467512e-01 -1.4436217909274783e+01 -8.1802787037429539e+02 +6.6897932109766640e+04 +2.1148948318271982e+06 
-5.2999999999999972e+00 -1.7316342670001503e-01 +1.4322053562849295e-03 +1.4013989865003379e-01 -1.4291091529965147e+01 -8.4765865319326383e+02 +6.6013616694394921e+04 +2.2395925105150868e+06 
-5.3999999999999968e+00 -1.7316345621744175e-01 +1.4287043298280265e-03 +1.4181944159791765e-01 -1.4153534462239982e+01 -8.7826711062481490e+02 +6.5178745713523575e+04 +2.3679534882627390e+06 
-5.4999999999999964e+00 -1.7316348677900287e-01 +1.4252839273231836e-03 +1.4355939058612094e-01 -1.4025767386935486e+01 -9.0971873567123532e+02 +6.4405674178470770e+04 +2.4993443001339878e+06 
-5.5999999999999961e+00 -1.7316351851998438e-01 +1.4220006935943788e-03 +1.4535499542924080e-01 -1.3910011274115018e+01 -9.4187942093396771e+02 +6.3706759231596487e+04 +2.6331330250485688e+06 
-5.6999999999999957e+00 -1.7316355157585175e-01 +1.4189111717700493e-03 +1.4720153172209993e-01 -1.3808487394166205e+01 -9.7461546904169506e+02 +6.3094360218729154e+04 +2.7686893168129101e+06 
-5.7999999999999954e+00 -1.7316358608224736e-01 +1.4160719032052938e-03 +1.4909430090921405e-01 -1.3723417332424571e+01 -1.0077935929349055e+03 +6.2580838798046039e+04 +2.9053843969768202e+06 
-5.8999999999999950e+00 -1.7316362217501333e-01 +1.4135394279354986e-03 +1.5102863291012963e-01 -1.3657023015779169e+01 -1.0412809598194360e+03 +6.2178559106886903e+04 +3.0425912412173026e+06 
-5.9999999999999947e+00 -1.7316365998991373e-01 +1.4113699159545210e-03 +1.5299981635947540e-01 -1.3611506842021463e+01 -1.0749421838945057e+03 +6.1899812832825868e+04 +3.1796704658851880e+06 
-6.0999999999999943e+00 -1.7316369960848016e-01 +1.4096119984848977e-03 +1.5500225604896456e-01 -1.3588407406692902e+01 -1.1085888152811794e+03 +6.1753191736188252e+04 +3.3156843683852907e+06 
-6.1999999999999940e+00 -1.7316374084945196e-01 +1.4082647902560759e-03 +1.5702600532867536e-01 -1.3587066261960533e+01 -1.1420240472705516e+03 +6.1734777818358220e+04 +3.4497783723977497e+06 
-6.2999999999999936e+00 -1.7316378345095049e-01 +1.4072960801158340e-03 +1.5906097240239156e-01 -1.3605672880827978e+01 -1.1751239772566307e+03 +6.1834474218069787e+04 +3.5815595334862284e+06 
-6.3999999999999932e+00 -1.7316382715133485e-01 +1.4066730534010334e-03 +1.6109717845205199e-01 -1.3642390885255352e+01 -1.2077687684650689e+03 +6.2042068796990272e+04 +3.7106552938460927e+06 
-6.4999999999999929e+00 -1.7316387168888039e-01 +1.4063629408488292e-03 +1.6312463035435829e-01 -1.3695385111877560e+01 -1.2398383788044896e+03 +6.2347355657433007e+04 +3.8366924018123918e+06 
-6.5999999999999925e+00 -1.7316391680178522e-01 +1.4063330189089400e-03 +1.6513332149526966e-01 -1.3762821612771281e+01 -1.2712125796619837e+03 +6.2740135108504932e+04 +3.9592970140561927e+06 
-6.6999999999999922e+00 -1.7316396222815111e-01 +1.4065506128678599e-03 +1.6711322900322906e-01 -1.3842867740574723e+01 -1.3017709062347290e+03 +6.3210214123206169e+04 +4.0780944744668221e+06 
-6.7999999999999918e+00 -1.7316400770599497e-01 +1.4069830984957108e-03 +1.6905431504018870e-01 -1.3933692187022993e+01 -1.3313926848983333e+03 +6.3747406517186217e+04 +4.1927094560166192e+06 
-6.8999999999999915e+00 -1.7316405297323220e-01 +1.4075979037586419e-03 +1.7094652458177209e-01 -1.4033465027758551e+01 -1.3599569947597422e+03 +6.4341533175403041e+04 +4.3027657942526070e+06 
-6.9999999999999911e+00 -1.7316409776767688e-01 +1.4083625105353623e-03 +1.7277978510220923e-01 -1.4140357764074309e+01 -1.3873426638931435e+03 +6.4982422253047931e+04 +4.4078864809771283e+06 
-7.0999999999999908e+00 -1.7316414182704068e-01 +1.4092444576533710e-03 +1.7454400632340550e-01 -1.4252543405337921e+01 -1.4134282678012710e+03 +6.5659909616691642e+04 +4.5076936701692706e+06 
-7.1999999999999904e+00 -1.7316418488891888e-01 +1.4102113414892596e-03 +1.7622907824041606e-01 -1.4368196478540810e+01 -1.4380920953466602e+03 +6.6363838859681404e+04 +4.6018085321902670e+06 
-7.2999999999999901e+00 -1.7316422669080481e-01 +1.4112308181045146e-03 +1.7782487269284514e-01 -1.4485493082743126e+01 -1.4612121808271918e+03 +6.7084061576357592e+04 +4.6898514159395155e+06 
-7.3999999999999897e+00 -1.7316426697005941e-01 +1.4122706063708836e-03 +1.7932123938164435e-01 -1.4602610974587725e+01 -1.4826662323205444e+03 +6.7810437822712702e+04 +4.7714415264748717e+06 
-7.4999999999999893e+00 -1.7316430546393149e-01 +1.4132984887394165e-03 +1.8070800818645913e-01 -1.4717729582278277e+01 -1.5023316778522719e+03 +6.8532836155643483e+04 +4.8461971540682632e+06 
-7.5999999999999890e+00 -1.7316434190953428e-01 +1.4142823132159627e-03 +1.8197498599542314e-01 -1.4829030055433956e+01 -1.5200856084351597e+03 +6.9241133880847410e+04 +4.9137354187523490e+06 
-7.6999999999999886e+00 -1.7316437604385679e-01 +1.4151899960990796e-03 +1.8311195796266330e-01 -1.4934695340837047e+01 -1.5358048051364538e+03 +6.9925217461110078e+04 +4.9736724121722290e+06 
-7.7999999999999883e+00 -1.7316440760374627e-01 +1.4159895229035086e-03 +1.8410868506690403e-01 -1.5032910196753422e+01 -1.5493656953413451e+03 +7.0574982543877180e+04 +5.0256230030144593e+06 
-7.8999999999999879e+00 -1.7316443632591760e-01 +1.4166489518376848e-03 +1.8495490510821178e-01 -1.5121861293674661e+01 -1.5606443749291313e+03 +7.1180334525351340e+04 +5.0692009556567427e+06 
-7.9999999999999876e+00 -1.7316446194799143e-01 +1.4171370405247669e-03 +1.8564054887512915e-01 -1.5199761648068362e+01 -1.5695232246978865e+03 +7.1731107856402101e+04 +5.1040370354861505e+06 
-8.0999999999999872e+00 -1.7316448426706665e-01 +1.4174295072379619e-03 +1.8615877628227898e-01 -1.5265397843107040e+01 -1.5759864859115951e+03 +7.2219258239391420e+04 +5.1302136915361620e+06 
-8.1999999999999869e+00 -1.7316450331616343e-01 +1.4175270092621976e-03 +1.8651120252464951e-01 -1.5318792698509476e+01 -1.5801286874786163e+03 +7.2643666532455172e+04 +5.1481994909769492e+06 
-8.2999999999999865e+00 -1.7316451920054687e-01 +1.4174517202153974e-03 +1.8670101791425553e-01 -1.5360813593989858e+01 -1.5820114086076687e+03 +7.3008094662130141e+04 +5.1581791850561090e+06 
-8.3999999999999861e+00 -1.7316453202516857e-01 +1.4172268358778090e-03 +1.8673124516522005e-01 -1.5392374246899681e+01 -1.5816897945366211e+03 +7.3316564393229142e+04 +5.1603012871641591e+06 
-8.4999999999999858e+00 -1.7316454189503314e-01 +1.4168755410621865e-03 +1.8660491224853562e-01 -1.5414387791070904e+01 -1.5792190108388213e+03 +7.3573094385942095e+04 +5.1547141827224325e+06 
-8.5999999999999854e+00 -1.7316454891520025e-01 +1.4164210082385194e-03 +1.8632505247158576e-01 -1.5427766732890811e+01 -1.5746542419202335e+03 +7.3781699969242036e+04 +5.1415661134924656e+06 
-8.6999999999999851e+00 -1.7316455319078775e-01 +1.4158863976596787e-03 +1.8589470501260047e-01 -1.5433422945526310e+01 -1.5680506988464349e+03 +7.3946393115971354e+04 +5.1210052072229385e+06 
-8.7999999999999847e+00 -1.7316455482697155e-01 +1.4152948555719231e-03 +1.8531691481227139e-01 -1.5432267612739112e+01 -1.5594636144839624e+03 +7.4071182144114005e+04 +5.0931794466934344e+06 
-8.8999999999999844e+00 -1.7316455392898497e-01 +1.4146695140748713e-03 +1.8459473252210631e-01 -1.5425211216132944e+01 -1.5489482398752959e+03 +7.4160071654507046e+04 +5.0582366444833642e+06 
-8.9999999999999840e+00 -1.7316455060212865e-01 +1.4140334897926486e-03 +1.8373121560310257e-01 -1.5413163492735379e+01 -1.5365598615787351e+03 +7.4217062312528797e+04 +5.0163245146539593e+06 
-9.0999999999999837e+00 -1.7316454495176795e-01 +1.4134098836904639e-03 +1.8272942814791795e-01 -1.5397033420362648e+01 -1.5223537966766817e+03 +7.4246150772771041e+04 +4.9675906441236502e+06 
-9.1999999999999833e+00 -1.7316453708332924e-01 +1.4128217793886108e-03 +1.8159244030948937e-01 -1.5377729163353736e+01 -1.5063853784513508e+03 +7.4251329389558989e+04 +4.9121824147870671e+06 
-9.2999999999999829e+00 -1.7316452710230690e-01 +1.4122922428251930e-03 +1.8032332910605772e-01 -1.5356158057089571e+01 -1.4887099689958302e+03 +7.4236586146086018e+04 +4.8502470553901317e+06 
-9.3999999999999826e+00 -1.7316451511427469e-01 +1.4118443215538254e-03 +1.7892517994779422e-01 -1.5333226580512308e+01 -1.4693829857363864e+03 +7.4205904514588125e+04 +4.7819317591167074e+06 
-9.4999999999999822e+00 -1.7316450122486293e-01 +1.4115010432099956e-03 +1.7740108366069707e-01 -1.5309840304076491e+01 -1.4484598418855801e+03 +7.4163263171192782e+04 +4.7073833934433479e+06 
-9.5999999999999819e+00 -1.7316448553979180e-01 +1.4112854156422391e-03 +1.7575414069194090e-01 -1.5286903888976342e+01 -1.4259960237289640e+03 +7.4112636014775897e+04 +4.6267488578371163e+06 
-9.6999999999999815e+00 -1.7316446816484674e-01 +1.4112204250827068e-03 +1.7398745801957377e-01 -1.5265321027703857e+01 -1.4020470294658728e+03 +7.4057991843874421e+04 +4.5401747870834060e+06 
-9.7999999999999812e+00 -1.7316444920589236e-01 +1.4113290356717165e-03 +1.7210415078053048e-01 -1.5245994421654899e+01 -1.3766683967672384e+03 +7.4003294241192270e+04 +4.4478076721186293e+06 
-9.8999999999999808e+00 -1.7316442876887436e-01 +1.4116341888717563e-03 +1.7010734263564797e-01 -1.5229825760952666e+01 -1.3499157077684704e+03 +7.3952501485320521e+04 +4.3497938774671899e+06 
-9.9999999999999805e+00 -1.7316440695805574e-01 +1.4121583525976368e-03 +1.6799981357843022e-01 -1.5217721228781699e+01 -1.3218374545568226e+03 +7.3910033553616711e+04 +4.2462798070377950e+06 
-1.0099999999999980e+01 -1.7316438389506006e-01 +1.4129076926487785e-03 +1.6578265420657118e-01 -1.5210102735573653e+01 -1.2924152965652133e+03 +7.3879301925065127e+04 +4.1371605440170644e+06 
