# multipoles
# s[mm] polynom_b[n=0][T/m^n] polynom_b[n=1][T/m^n] polynom_b[n=2][T/m^n] polynom_b[n=3][T/m^n] polynom_b[n=4][T/m^n] polynom_b[n=5][T/m^n] polynom_b[n=6][T/m^n] 
+0.0000000000000000e+00 -4.7712382709850404e-01 +7.3139668676535567e-04 +1.3024530043722685e-01 +1.9117617048949956e+01 +1.6682393898587848e+03 -5.7000198047466736e+04 -1.0258374634121444e+07 
+1.0000000000000001e-01 -4.7712386290142572e-01 +7.2010602782861255e-04 +1.3260623767472804e-01 +1.9342333262813497e+01 +1.6106888566849334e+03 -5.8307036098601697e+04 -9.9531578092533536e+06 
+2.0000000000000001e-01 -4.7712390433102436e-01 +7.0896625314314241e-04 +1.3520374886461778e-01 +1.9544725656221626e+01 +1.5499801160370253e+03 -5.9447239436758791e+04 -9.6361097314063143e+06 
+3.0000000000000004e-01 -4.7712395095543614e-01 +6.9790049674875074e-04 +1.3801491493014695e-01 +1.9727643481525568e+01 +1.4865382635069086e+03 -6.0438255811968120e+04 -9.3093111555448249e+06 
+4.0000000000000002e-01 -4.7712400234281216e-01 +6.8683187307777029e-04 +1.4101682212389233e-01 +1.9893936491617339e+01 +1.4207882896610743e+03 -6.1297535627275276e+04 -8.9748424108360540e+06 
+5.0000000000000000e-01 -4.7712405806130009e-01 +6.7568347301091803e-04 +1.4418655992878029e-01 +2.0046455035735207e+01 +1.3531551151951094e+03 -6.2042532367037893e+04 -8.6347835438981988e+06 
+5.9999999999999998e-01 -4.7712411767905993e-01 +6.6437837297537170e-04 +1.4750122240818422e-01 +2.0188049796532592e+01 +1.2840635671175837e+03 -6.2690700999775421e+04 -8.2912142015819475e+06 
+6.9999999999999996e-01 -4.7712418076422125e-01 +6.5283963161237178e-04 +1.5093790326345013e-01 +2.0321571872371290e+01 +1.2139384658493509e+03 -6.3259498341034356e+04 -7.9462140131448712e+06 
+7.9999999999999993e-01 -4.7712424688490046e-01 +6.4099029328695963e-04 +1.5447369756539808e-01 +2.0449872665132293e+01 +1.1432045915276908e+03 -6.3766382298201926e+04 -7.6018624194764392e+06 
+8.9999999999999991e-01 -4.7712431560916096e-01 +6.2875339121227570e-04 +1.5808569674504019e-01 +2.0575803782562765e+01 +1.0722867768021272e+03 -6.4228811210093707e+04 -7.2602390944123995e+06 
+9.9999999999999989e-01 -4.7712438650504124e-01 +6.1605194741630638e-04 +1.6175099179168576e-01 +2.0702217027949356e+01 +1.0016098440700840e+03 -6.4664243682980712e+04 -6.9234236323757824e+06 
+1.0999999999999999e+00 -4.7712445914049828e-01 +6.0280897502244942e-04 +1.6544666636677113e-01 +2.0831964327130727e+01 +9.3159873195419470e+02 -6.5090138070371366e+04 -6.5934961249890784e+06 
+1.2000000000000000e+00 -4.7712453308343300e-01 +5.8894748138700180e-04 +1.6914979975966143e-01 +2.0967897625403946e+01 +8.6267843756752529e+02 -6.5523951767356812e+04 -6.2725368730322542e+06 
+1.3000000000000000e+00 -4.7712460790166616e-01 +5.7439046763114760e-04 +1.7283746353873586e-01 +2.1112868892643327e+01 +7.9527407818080508e+02 -6.5983141143253859e+04 -5.9626266618604809e+06 
+1.4000000000000001e+00 -4.7712468316291340e-01 +5.5906093348559221e-04 +1.7648671849110492e-01 +2.1269729974636572e+01 +7.2981094596696732e+02 -6.6485160581846038e+04 -5.6658470020536482e+06 
+1.5000000000000002e+00 -4.7712475843481378e-01 +5.4288187657735264e-04 +1.8007461816395884e-01 +2.1441332600714173e+01 +6.6671443864643436e+02 -6.7047462413898509e+04 -5.3842797847647965e+06 
+1.6000000000000003e+00 -4.7712483328486888e-01 +5.2577629622517258e-04 +1.8357820075485107e-01 +2.1630528270228076e+01 +6.0641021114725970e+02 -6.7687496174807704e+04 -5.1200079821828613e+06 
+1.7000000000000004e+00 -4.7712490728046947e-01 +5.0766719337365948e-04 +1.8697449275647218e-01 +2.1840168238385161e+01 +5.4932410277657300e+02 -6.8422708402283140e+04 -4.8751152832023697e+06 
+1.8000000000000005e+00 -4.7712497998887027e-01 +4.8847757472642560e-04 +1.9024050548673188e-01 +2.2073103391604970e+01 +4.9588220101423798e+02 -6.9270541827690075e+04 -4.6516863789608059e+06 
+1.9000000000000006e+00 -4.7712505097718788e-01 +4.6813045194819104e-04 +1.9335323456498280e-01 +2.2332184261043253e+01 +4.4651085138445291e+02 -7.0248435351126464e+04 -4.4518069998695124e+06 
+2.0000000000000004e+00 -4.7712511981238431e-01 +4.4654888848109583e-04 +1.9628966336521209e-01 +2.2620259150008188e+01 +4.0163648643984453e+02 -7.1373811781239201e+04 -4.2775627623931738e+06 
+2.1000000000000005e+00 -4.7712518611491400e-01 +4.2371150889845176e-04 +1.9903323477134249e-01 +2.2938782969202315e+01 +3.6153150781298200e+02 -7.2656703055182792e+04 -4.1302087397814249e+06 
+2.2000000000000006e+00 -4.7712524975830195e-01 +3.9979045754795652e-04 +2.0158805424135257e-01 +2.3284909177638976e+01 +3.2599401784889699e+02 -7.4086051599532773e+04 -4.0084272539867321e+06 
+2.3000000000000007e+00 -4.7712531068909175e-01 +3.7500143255192686e-04 +2.0396237109723558e-01 +2.3654977765717103e+01 +2.9472559160876466e+02 -7.5647385204229184e+04 -3.9103525246514720e+06 
+2.4000000000000008e+00 -4.7712536885393425e-01 +3.4956013195496140e-04 +2.0616443791929479e-01 +2.4045329466956073e+01 +2.6742774408209215e+02 -7.7326238981175076e+04 -3.8341182990614399e+06 
+2.5000000000000009e+00 -4.7712542419960785e-01 +3.2368226749792653e-04 +2.0820251107167209e-01 +2.4452304788301770e+01 +2.4380200460045918e+02 -7.9108147560762969e+04 -3.7778585541969612e+06 
+2.6000000000000010e+00 -4.7712547667305094e-01 +2.9758356590568839e-04 +2.1008485373142563e-01 +2.4872243999471252e+01 +2.2354986929626102e+02 -8.0978645211332288e+04 -3.7397072946465546e+06 
+2.7000000000000011e+00 -4.7712552622135718e-01 +2.7147977265592864e-04 +2.1181973401193319e-01 +2.5301487057491507e+01 +2.0637284521787180e+02 -8.2923265604066619e+04 -3.7177987784468150e+06 
+2.8000000000000012e+00 -4.7712557279183027e-01 +2.4558664940179748e-04 +2.1341543020482232e-01 +2.5736373707981826e+01 +1.9197236472033725e+02 -8.4927542574788255e+04 -3.7102671456200965e+06 
+2.9000000000000012e+00 -4.7712561633196365e-01 +2.2011997837675021e-04 +2.1488022721095870e-01 +2.6173243388503174e+01 +1.8004986130889998e+02 -8.6977009757715772e+04 -3.7152467943166918e+06 
+3.0000000000000013e+00 -4.7712565678950081e-01 +1.9529556503941901e-04 +2.1622242268909952e-01 +2.6608435182445529e+01 +1.7030666416713277e+02 -8.9057200512789670e+04 -3.7308719075473188e+06 
+3.1000000000000014e+00 -4.7712569411242878e-01 +1.7132923636213761e-04 +2.1745032497498679e-01 +2.7038287894210026e+01 +1.6244404730568885e+02 -9.1153648530092207e+04 -3.7552767066722810e+06 
+3.2000000000000015e+00 -4.7712572824900601e-01 +1.4843684370060705e-04 +2.1857225518098403e-01 +2.7459140003503563e+01 +1.5616320172548723e+02 -9.3251887781586061e+04 -3.7865953483037096e+06 
+3.3000000000000016e+00 -4.7712575914777872e-01 +1.2683426495877339e-04 +2.1959654796323141e-01 +2.7867329622502226e+01 +1.5116522969519292e+02 -9.5337452429887722e+04 -3.8229619156988906e+06 
+3.4000000000000017e+00 -4.7712578675761158e-01 +1.0673740559977023e-04 +2.2053155421626489e-01 +2.8259194504217898e+01 +1.4715110447414310e+02 -9.7395877087356756e+04 -3.8625102537466395e+06 
+3.5000000000000018e+00 -4.7712581102769097e-01 +8.8362201074700515e-05 +2.2138563988864515e-01 +2.8631071994021930e+01 +1.4382170443411025e+02 -9.9412696704718299e+04 -3.9033741565836784e+06 
+3.6000000000000019e+00 -4.7712583190756835e-01 +7.1924615341685617e-05 +2.2216719012725478e-01 +2.8979299109215216e+01 +1.4087774422277553e+02 -1.0137344723168736e+05 -3.9436870640067258e+06 
+3.7000000000000020e+00 -4.7712584934715047e-01 +5.7640646570591294e-05 +2.2288460699675422e-01 +2.9300212397738459e+01 +1.3801982853673934e+02 -1.0326366497973810e+05 -3.9815823399617262e+06 
+3.8000000000000020e+00 -4.7712586329674356e-01 +4.5726324692927888e-05 +2.2354631362297211e-01 +2.9590148040689499e+01 +1.3494838220443705e+02 -1.0506888739952410e+05 -4.0151929604608263e+06 
+3.9000000000000021e+00 -4.7712587370707460e-01 +3.6397715778794679e-05 +2.2416075528651128e-01 +2.9845441753454573e+01 +1.3136364347852347e+02 -1.0677465269808235e+05 -4.0426515148161892e+06 
+4.0000000000000018e+00 -4.7712588052884403e-01 +2.9870677729509154e-05 +2.2473628886667629e-01 +3.0062430511273540e+01 +1.2696753555168866e+02 -1.0836648041931746e+05 -4.0620965913577038e+06 
+4.1000000000000014e+00 -4.7712588371590703e-01 +2.6259956429324723e-05 +2.2526853238352307e-01 +3.0239103767368491e+01 +1.2171665045154201e+02 -1.0983571954777090e+05 -4.0727914462946989e+06 
+4.2000000000000011e+00 -4.7712588326932953e-01 +2.5368168243915630e-05 +2.2574316653318063e-01 +3.0377544552013067e+01 +1.1594401062831470e+02 -1.1118476595677510e+05 -4.0762251905926005e+06 
+4.3000000000000007e+00 -4.7712587921068117e-01 +2.6933739169818789e-05 +2.2615201532449800e-01 +3.0479955937245890e+01 +1.0998348293837515e+02 -1.1241246531525929e+05 -4.0742871219088491e+06 
+4.4000000000000004e+00 -4.7712587156154801e-01 +3.0695414434745240e-05 +2.2648692792190039e-01 +3.0548516305152454e+01 +1.0417008015203368e+02 -1.1351747495525310e+05 -4.0688783988654437e+06 
+4.5000000000000000e+00 -4.7712586034338517e-01 +3.6391947566181577e-05 +2.2673977402696691e-01 +3.0585402940885150e+01 +9.8838172847221827e+01 -1.1449844313843671e+05 -4.0618967524817046e+06 
+4.5999999999999996e+00 -4.7712584557747995e-01 +4.3762099302620582e-05 +2.2690244209314800e-01 +3.0592792017862852e+01 +9.4321504966359186e+01 -1.1535400880938287e+05 -4.0552365306158606e+06 
+4.6999999999999993e+00 -4.7712582728493624e-01 +5.2544639038940319e-05 +2.2696683966751155e-01 +3.0572858492232495e+01 +9.0953170256233548e+01 -1.1608280075603758e+05 -4.0507885590808769e+06 
+4.7999999999999989e+00 -4.7712580548667438e-01 +6.2478342707185391e-05 +2.2692489601951354e-01 +3.0527776119173048e+01 +8.9065545196546992e+01 -1.1668343753706808e+05 -4.0504397984774974e+06 
+4.8999999999999986e+00 -4.7712578020341040e-01 +7.3301993706690672e-05 +2.2676856269393947e-01 +3.0459717365018435e+01 +8.8990256280526921e+01 -1.1715452676153646e+05 -4.0560731487791655e+06 
+4.9999999999999982e+00 -4.7712575145561298e-01 +8.4754380652825512e-05 +2.2648981024384088e-01 +3.0370853427802839e+01 +9.1058227372100959e+01 -1.1749466503709176e+05 -4.0695676534379697e+06 
+5.0999999999999979e+00 -4.7712571926353986e-01 +9.6574298149341262e-05 +2.2608063562164080e-01 +3.0263354155663389e+01 +9.5599519709265280e+01 -1.1770243729320042e+05 -4.0927977090533026e+06 
+5.1999999999999975e+00 -4.7712568364717961e-01 +1.0850054704342504e-04 +2.2553305755357586e-01 +3.0139387987817926e+01 +1.0294340192721813e+02 -1.1777641624956299e+05 -4.1276333682025801e+06 
+5.2999999999999972e+00 -4.7712564462624774e-01 +1.2027193227552287e-04 +2.2483911873428258e-01 +3.0001121967949292e+01 +1.1341828965676625e+02 -1.1771516231746924e+05 -4.1759400232829209e+06 
+5.3999999999999968e+00 -4.7712560222018763e-01 +1.3162726264159236e-04 +2.2399088865432099e-01 +2.9850721690903985e+01 +1.2735167274763128e+02 -1.1751722307806750e+05 -4.2395780298471134e+06 
+5.4999999999999964e+00 -4.7712555644813798e-01 +1.4230535203857325e-04 +2.2298046203418953e-01 +2.9690351224659373e+01 +1.4507012893339058e+02 -1.1718113267507560e+05 -4.3204027485191440e+06 
+5.5999999999999961e+00 -4.7712550732890108e-01 +1.5204501649994631e-04 +2.2179995755217938e-01 +2.9522173136376214e+01 +1.6689932698475980e+02 -1.1670541175125945e+05 -4.4202645210110946e+06 
+5.6999999999999957e+00 -4.7712545488098446e-01 +1.6058507581810674e-04 +2.2044152591071156e-01 +2.9348348395559224e+01 +1.9316385716952445e+02 -1.1608856671345100e+05 -4.5410078465100946e+06 
+5.7999999999999954e+00 -4.7712539912251400e-01 +1.6766435277092162e-04 +2.1889734141470116e-01 +2.9171036345940880e+01 +2.2418737096635599e+02 -1.1532908938412457e+05 -4.6844720050912723e+06 
+5.8999999999999950e+00 -4.7712534007127039e-01 +1.7302167043464441e-04 +2.1715960919971117e-01 +2.8992394733020753e+01 +2.6029242791383410e+02 -1.1442545697600345e+05 -4.8524903118416322e+06 
+5.9999999999999947e+00 -4.7712527774706170e-01 +1.7639620766329321e-04 +2.1522102094247575e-01 +2.8814610000368003e+01 +3.0179502983421321e+02 -1.1337656819778771e+05 -5.0468900477792332e+06 
+6.0999999999999943e+00 -4.7712521231503818e-01 +1.7762390604493297e-04 +2.1310128813624071e-01 +2.8638908016371474e+01 +3.4857148989192854e+02 -1.1218261394516198e+05 -5.2679238248624066e+06 
+6.1999999999999940e+00 -4.7712514424975111e-01 +1.7682208782319344e-04 +2.1084062242750665e-01 +2.8464271747477241e+01 +3.9999956652611394e+02 -1.1084547266320862e+05 -5.5133375870155031e+06 
+6.2999999999999936e+00 -4.7712507405298510e-01 +1.7416677610661982e-04 +2.0846715297999296e-01 +2.8290756896891892e+01 +4.5547513241472723e+02 -1.0937862050223225e+05 -5.7803172751563322e+06 
+6.3999999999999932e+00 -4.7712500222606535e-01 +1.6983244683008243e-04 +2.0600896952171791e-01 +2.8118531201822332e+01 +5.1438619797313083e+02 -1.0779629992306963e+05 -6.0659866594299814e+06 
+6.4999999999999929e+00 -4.7712492927039468e-01 +1.6399350624264728e-04 +2.0349412211089921e-01 +2.7947765303678100e+01 +5.7612182291597867e+02 -1.0611277263945594e+05 -6.3674747884095032e+06 
+6.5999999999999925e+00 -4.7712485568749713e-01 +1.5682428149102167e-04 +2.0095062450564480e-01 +2.7778633064280935e+01 +6.4007206698358993e+02 -1.0434232156620359e+05 -6.6819157734856233e+06 
+6.6999999999999922e+00 -4.7712478197898511e-01 +1.4849902410675426e-04 +1.9840644720104189e-01 +2.7611311513296968e+01 +7.0562813762745805e+02 -1.0249925066367853e+05 -7.0064495033950200e+06 
+6.7999999999999918e+00 -4.7712470864659584e-01 +1.3919190374614041e-04 +1.9588951991100645e-01 +2.7445981077748115e+01 +7.7218235643909145e+02 -1.0059788639632573e+05 -7.3382214992707241e+06 
+6.8999999999999915e+00 -4.7712463619217999e-01 +1.2907700516725008e-04 +1.9342772730660107e-01 +2.7282825716324119e+01 +8.3912825721844342e+02 -9.8652578646672802e+04 -7.6743834000161476e+06 
+6.9999999999999911e+00 -4.7712456511770696e-01 +1.1832832674540615e-04 +1.9104890720578738e-01 +2.7122033006757064e+01 +9.0586063656391332e+02 -9.6677701348853661e+04 -8.0120932219401114e+06 
+7.0999999999999908e+00 -4.7712449592527140e-01 +1.0711977669657071e-04 +1.8878084899917399e-01 +2.6963794304823171e+01 +9.7177559696696835e+02 -9.4687653548168470e+04 -8.3485155737415180e+06 
+7.1999999999999904e+00 -4.7712442911710623e-01 +9.5625170733005824e-05 +1.8665129267884423e-01 +2.6808304856931244e+01 +1.0362705821542795e+03 -9.2696860184683421e+04 -8.6808218449781109e+06 
+7.2999999999999901e+00 -4.7712436519555712e-01 +8.4018228031041702e-05 +1.8468792321033736e-01 +2.6655763961180543e+01 +1.0987444982281916e+03 -9.0719773146221967e+04 -9.0061907938771285e+06 
+7.3999999999999897e+00 -4.7712430466312789e-01 +7.2472571620019608e-05 +1.8291837354093340e-01 +2.6506375006190641e+01 +1.1585976737688754e+03 -8.8770871642325932e+04 -9.3218083812177479e+06 
+7.4999999999999893e+00 -4.7712424802246062e-01 +6.1161720397185054e-05 +1.8137021980847617e-01 +2.6360345739864311e+01 +1.2152319642844998e+03 -8.6864663858218701e+04 -9.6248682759999894e+06 
+7.5999999999999890e+00 -4.7712419577634452e-01 +5.0259091268724282e-05 +1.8007097984512599e-01 +2.6217888262979578e+01 +1.2680507968208849e+03 -8.5015687084533609e+04 -9.9125720861636456e+06 
+7.6999999999999886e+00 -4.7712414842772283e-01 +3.9937992080063005e-05 +1.7904811141321914e-01 +2.6079219269899202e+01 +1.3164592194336426e+03 -8.3238509206352566e+04 -1.0182129611842861e+07 
+7.7999999999999883e+00 -4.7712410647968373e-01 +3.0371623911929551e-05 +1.7832900860025930e-01 +2.5944560031971040e+01 +1.3598639848278181e+03 -8.1547728752688156e+04 -1.0430759256954772e+07 
+7.8999999999999879e+00 -4.7712407043549115e-01 +2.1733070739617214e-05 +1.7794100349348560e-01 +2.5814136736597870e+01 +1.3976735321503179e+03 -7.9957976967399271e+04 -1.0655687957010072e+07 
+7.9999999999999876e+00 -4.7712404079506160e-01 +1.4195792832099846e-05 +1.7791078943941388e-01 +2.5688081341274032e+01 +1.4293008892675437e+03 -7.8482816538260260e+04 -1.0854108799976509e+07 
+8.0999999999999872e+00 -4.7712401780913277e-01 +7.8809382481742500e-06 +1.7823702649375944e-01 +2.5566550956664383e+01 +1.4545604219959203e+03 -7.7130015026886264e+04 -1.1024488726093465e+07 
+8.1999999999999869e+00 -4.7712400101198960e-01 +2.7291388634126587e-06 +1.7888372771785277e-01 +2.5451248953567557e+01 +1.4738164078126188e+03 -7.5907386199021508e+04 -1.1167626649521025e+07 
+8.2999999999999865e+00 -4.7712398979176013e-01 -1.3716159916435041e-06 +1.7982099964342002e-01 +2.5343139567773445e+01 +1.4874587910139976e+03 -7.4814499775833945e+04 -1.1284890916747695e+07 
+8.3999999999999861e+00 -4.7712398353663987e-01 -4.5309556198250155e-06 +1.8101890189641170e-01 +2.5243014008378431e+01 +1.4958924374986968e+03 -7.3849797794278842e+04 -1.1377756153621761e+07 
+8.4999999999999858e+00 -4.7712398163456660e-01 -6.8583821558684527e-06 +1.8244748733204710e-01 +2.5151660568410815e+01 +1.4995221998319935e+03 -7.3011709077768101e+04 -1.1447696873637259e+07 
+8.5999999999999854e+00 -4.7712398347320978e-01 -8.4632563401334411e-06 +1.8407680201935320e-01 +2.5069864228576545e+01 +1.4987529093625712e+03 -7.2298647036184557e+04 -1.1496187431248361e+07 
+8.6999999999999851e+00 -4.7712398843994969e-01 -9.4548045337087014e-06 +1.8587688362515223e-01 +2.4998406880394629e+01 +1.4939894011287815e+03 -7.1709011042013415e+04 -1.1524702137337739e+07 
+8.7999999999999847e+00 -4.7712399592188109e-01 -9.9421050129865020e-06 +1.8781776271803099e-01 +2.4938066951992138e+01 +1.4856364854578253e+03 -7.1241184378375678e+04 -1.1534715128500523e+07 
+8.8999999999999844e+00 -4.7712400530578358e-01 -1.0034090655270728e-05 +1.8986946026491550e-01 +2.4889619497675955e+01 +1.4740989878556900e+03 -7.0893534822654707e+04 -1.1527700547158260e+07 
+8.9999999999999840e+00 -4.7712401597815635e-01 -9.8395378461548934e-06 +1.9200199331591206e-01 +2.4853835904083748e+01 +1.4597816349219827e+03 -7.0664413066083609e+04 -1.1505132000560760e+07 
+9.0999999999999837e+00 -4.7712402732516951e-01 -9.4670668848092037e-06 +1.9418536916449819e-01 +2.4831483914731752e+01 +1.4430891632387256e+03 -7.0552152929996970e+04 -1.1468483081374092e+07 
+9.1999999999999833e+00 -4.7712403873265974e-01 -9.0251362357286250e-06 +1.9638958668866724e-01 +2.4823327487287084e+01 +1.4244262840214869e+03 -7.0555070644138352e+04 -1.1419227188607616e+07 
+9.2999999999999829e+00 -4.7712404958615195e-01 -8.6220366219110648e-06 +1.9858463972006582e-01 +2.4830126639735457e+01 +1.4041976150136309e+03 -7.0671464049328788e+04 -1.1358837206851372e+07 
+9.3999999999999826e+00 -4.7712405927082735e-01 -8.3658877066193419e-06 +2.0074051408838009e-01 +2.4852637375343374e+01 +1.3828077322872944e+03 -7.0899612252385981e+04 -1.1288785753040671e+07 
+9.4999999999999822e+00 -4.7712406717151840e-01 -8.3646351336056394e-06 +2.0282718793869195e-01 +2.4891611614769644e+01 +1.3606611580303097e+03 -7.1237775328837582e+04 -1.1210545114827076e+07 
+9.5999999999999819e+00 -4.7712407267271095e-01 -8.7260430470485654e-06 +2.0481463343722214e-01 +2.4947797001208020e+01 +1.3381623209835118e+03 -7.1684193292895114e+04 -1.1125587058157427e+07 
+9.6999999999999815e+00 -4.7712407515851629e-01 -9.5576907599554049e-06 +2.0667281374786223e-01 +2.5021936822250680e+01 +1.3157156103411598e+03 -7.2237085735953136e+04 -1.1035383084165636e+07 
+9.7999999999999812e+00 -4.7712407401269319e-01 -1.0966970429119803e-05 +2.0837168743514503e-01 +2.5114769963612236e+01 +1.2937252854859175e+03 -7.2894651654320085e+04 -1.0941404000158018e+07 
+9.8999999999999808e+00 -4.7712406861861156e-01 -1.3061078230669475e-05 +2.0988120441072508e-01 +2.5227030675091164e+01 +1.2725955479184151e+03 -7.3655068197662171e+04 -1.0845120256932477e+07 
+9.9999999999999805e+00 -4.7712405836021027e-01 -1.5949152219882931e-05 +2.1117138260963597e-01 +2.5359620984494153e+01 +1.2527422210028815e+03 -7.4517941390052583e+04 -1.0748117294323213e+07 
+1.0099999999999980e+01 -4.7712404278206155e-01 -1.9714325400459580e-05 +2.1223069763221189e-01 +2.5513815053211978e+01 +1.2343542116563317e+03 -7.5488293513943456e+04 -1.0651351739614530e+07 
