# field on trajectory
# s[mm] rx[mm] ry[mm] rz[mm] bx[T] by[T] bz[T]
0.0000000000000000e+00 +4.6467000000000001e+00 +0.0000000000000000e+00 +0.0000000000000000e+00 +7.1610317118484370e-03 -1.2967743982072394e-01 +8.5899003724251323e-04
1.0000000000000001e-01 +4.6466956970611841e+00 +0.0000000000000000e+00 +9.9999999876564785e-02 +7.1610641280066426e-03 -1.2967739405696785e-01 +8.5897323653359443e-04
2.0000000000000001e-01 +4.6466827882468094e+00 +0.0000000000000000e+00 +1.9999999901251855e-01 +7.1611003690302474e-03 -1.2967734678505294e-01 +8.5895314165300158e-04
3.0000000000000004e-01 +4.6466612735601078e+00 +0.0000000000000000e+00 +2.9999999666725108e-01 +7.1611400220530849e-03 -1.2967729818371229e-01 +8.5893000212462105e-04
4.0000000000000002e-01 +4.6466311530044626e+00 +0.0000000000000000e+00 +3.9999999210015291e-01 +7.1611826741920619e-03 -1.2967724843162920e-01 +8.5890406746737420e-04
5.0000000000000000e-01 +4.6465924265833980e+00 +0.0000000000000000e+00 +4.9999998457061545e-01 +7.1612279125574576e-03 -1.2967719770744637e-01 +8.5887558719905256e-04
5.9999999999999998e-01 +4.6465450943005662e+00 +0.0000000000000000e+00 +5.9999997333803112e-01 +7.1612753242632820e-03 -1.2967714618977669e-01 +8.5884481084015521e-04
6.9999999999999996e-01 +4.6464891561597357e+00 +0.0000000000000000e+00 +6.9999995766179324e-01 +7.1613244964375804e-03 -1.2967709405721242e-01 +8.5881198791772355e-04
7.9999999999999993e-01 +4.6464246121647790e+00 +0.0000000000000000e+00 +7.9999993680129600e-01 +7.1613750162327801e-03 -1.2967704148833575e-01 +8.5877736796918281e-04
8.9999999999999991e-01 +4.6463514623196618e+00 +0.0000000000000000e+00 +8.9999991001593460e-01 +7.1614264708359972e-03 -1.2967698866172853e-01 +8.5874120054617688e-04
9.9999999999999989e-01 +4.6462697066284315e+00 +0.0000000000000000e+00 +9.9999987656510514e-01 +7.1614784474793823e-03 -1.2967693575598244e-01 +8.5870373521840617e-04
1.0999999999999999e+00 +4.6461793450952031e+00 +0.0000000000000000e+00 +1.0999998357082048e+00 +7.1615305334504324e-03 -1.2967688294970867e-01 +8.5866522157746069e-04
1.2000000000000000e+00 +4.6460803777241484e+00 +0.0000000000000000e+00 +1.1999997867046317e+00 +7.1615823161023141e-03 -1.2967683042154809e-01 +8.5862590924065587e-04
1.3000000000000000e+00 +4.6459728045194861e+00 +0.0000000000000000e+00 +1.2999997288137846e+00 +7.1616333828641854e-03 -1.2967677835018138e-01 +8.5858604785485945e-04
1.4000000000000001e+00 +4.6458566254854681e+00 +0.0000000000000000e+00 +1.3999996612950636e+00 +7.1616833212515265e-03 -1.2967672691433857e-01 +8.5854588710032272e-04
1.5000000000000002e+00 +4.6457318406263663e+00 +0.0000000000000000e+00 +1.4999995834078694e+00 +7.1617317188764325e-03 -1.2967667629280946e-01 +8.5850567669450075e-04
1.6000000000000003e+00 +4.6455984499464646e+00 +0.0000000000000000e+00 +1.5999994944116041e+00 +7.1617781634579544e-03 -1.2967662666445326e-01 +8.5846566639587239e-04
1.7000000000000004e+00 +4.6454564534500422e+00 +0.0000000000000000e+00 +1.6999993935656699e+00 +7.1618222428323896e-03 -1.2967657820820885e-01 +8.5842610600775446e-04
1.8000000000000005e+00 +4.6453058511413658e+00 +0.0000000000000000e+00 +1.7999992801294702e+00 +7.1618635449636116e-03 -1.2967653110310434e-01 +8.5838724538211031e-04
1.9000000000000006e+00 +4.6451466430246757e+00 +0.0000000000000000e+00 +1.8999991533624094e+00 +7.1619016579533533e-03 -1.2967648552826744e-01 +8.5834933442335219e-04
2.0000000000000004e+00 +4.6449788291041756e+00 +0.0000000000000000e+00 +1.9999990125238922e+00 +7.1619361700515222e-03 -1.2967644166293499e-01 +8.5831262309213731e-04
2.1000000000000005e+00 +4.6448024093840177e+00 +0.0000000000000000e+00 +2.0999988568733245e+00 +7.1619667545924940e-03 -1.2967639964026648e-01 +8.5827730441118643e-04
2.2000000000000006e+00 +4.6446173838682974e+00 +0.0000000000000000e+00 +2.1999986856701121e+00 +7.1619934247212098e-03 -1.2967635940870698e-01 +8.5824334343395365e-04
2.3000000000000007e+00 +4.6444237525610559e+00 +0.0000000000000000e+00 +2.2999984981736623e+00 +7.1620162784828134e-03 -1.2967632087049583e-01 +8.5821064818000792e-04
2.4000000000000008e+00 +4.6442215154662847e+00 +0.0000000000000000e+00 +2.3999982936433826e+00 +7.1620354138599964e-03 -1.2967628392784739e-01 +8.5817912662015309e-04
2.5000000000000009e+00 +4.6440106725879344e+00 +0.0000000000000000e+00 +2.4999980713386805e+00 +7.1620509287581603e-03 -1.2967624848294323e-01 +8.5814868666821804e-04
2.6000000000000010e+00 +4.6437912239299193e+00 +0.0000000000000000e+00 +2.5999978305189648e+00 +7.1620629209905714e-03 -1.2967621443792518e-01 +8.5811923617284762e-04
2.7000000000000011e+00 +4.6435631694961241e+00 +0.0000000000000000e+00 +2.6999975704436445e+00 +7.1620714882635267e-03 -1.2967618169488726e-01 +8.5809068290929990e-04
2.8000000000000012e+00 +4.6433265092904117e+00 +0.0000000000000000e+00 +2.7999972903721293e+00 +7.1620767281615448e-03 -1.2967615015586870e-01 +8.5806293457124790e-04
2.9000000000000012e+00 +4.6430812433166286e+00 +0.0000000000000000e+00 +2.8999969895638293e+00 +7.1620787381325296e-03 -1.2967611972284637e-01 +8.5803589876258437e-04
3.0000000000000013e+00 +4.6428273715786110e+00 +0.0000000000000000e+00 +2.9999966672781548e+00 +7.1620776154729636e-03 -1.2967609029772703e-01 +8.5800948298923266e-04
3.1000000000000014e+00 +4.6425648940801922e+00 +0.0000000000000000e+00 +3.0999963227745173e+00 +7.1620734573131029e-03 -1.2967606178234037e-01 +8.5798359465096279e-04
3.2000000000000015e+00 +4.6422938108252092e+00 +0.0000000000000000e+00 +3.1999959553123283e+00 +7.1620663606021800e-03 -1.2967603407843120e-01 +8.5795814103321356e-04
3.3000000000000016e+00 +4.6420141218175086e+00 +0.0000000000000000e+00 +3.2999955641510001e+00 +7.1620564220936118e-03 -1.2967600708765228e-01 +8.5793302929892143e-04
3.4000000000000017e+00 +4.6417258270609532e+00 +0.0000000000000000e+00 +3.3999951485499453e+00 +7.1620437383302198e-03 -1.2967598071155670e-01 +8.5790816648035446e-04
3.5000000000000018e+00 +4.6414289265594295e+00 +0.0000000000000000e+00 +3.4999947077685767e+00 +7.1620284056294623e-03 -1.2967595485159036e-01 +8.5788345947095449e-04
3.6000000000000019e+00 +4.6411234203168537e+00 +0.0000000000000000e+00 +3.5999942410663084e+00 +7.1620105200686651e-03 -1.2967592940908498e-01 +8.5785881501718674e-04
3.7000000000000020e+00 +4.6408093083371762e+00 +0.0000000000000000e+00 +3.6999937477025542e+00 +7.1619901774702677e-03 -1.2967590428525036e-01 +8.5783413971039595e-04
3.8000000000000020e+00 +4.6404865906243913e+00 +0.0000000000000000e+00 +3.7999932269367296e+00 +7.1619674733870986e-03 -1.2967587938116693e-01 +8.5780933997867169e-04
3.9000000000000021e+00 +4.6401552671825428e+00 +0.0000000000000000e+00 +3.8999926780282492e+00 +7.1619425030876151e-03 -1.2967585459777856e-01 +8.5778432207872285e-04
4.0000000000000018e+00 +4.6398153380157297e+00 +0.0000000000000000e+00 +3.9999921002365295e+00 +7.1619153615412115e-03 -1.2967582983588521e-01 +8.5775899208775876e-04
4.1000000000000014e+00 +4.6394668031281130e+00 +0.0000000000000000e+00 +4.0999914928209868e+00 +7.1618861849835147e-03 -1.2967580501303869e-01 +8.5773327981948741e-04
4.2000000000000011e+00 +4.6391096625239214e+00 +0.0000000000000000e+00 +4.1999908550410394e+00 +7.1618552758035024e-03 -1.2967578011431688e-01 +8.5770721070620832e-04
4.3000000000000007e+00 +4.6387439162074520e+00 +0.0000000000000000e+00 +4.2999901861561041e+00 +7.1618229779929548e-03 -1.2967575514169991e-01 +8.5768083418137620e-04
4.4000000000000004e+00 +4.6383695641830709e+00 +0.0000000000000000e+00 +4.3999894854255999e+00 +7.1617896355835216e-03 -1.2967573009717462e-01 +8.5765419977612404e-04
4.5000000000000000e+00 +4.6379866064552129e+00 +0.0000000000000000e+00 +4.4999887521089468e+00 +7.1617555926540089e-03 -1.2967570498273698e-01 +8.5762735712828096e-04
4.5999999999999996e+00 +4.6375950430283801e+00 +0.0000000000000000e+00 +4.5999879854655639e+00 +7.1617211933376716e-03 -1.2967567980039507e-01 +8.5760035599138657e-04
4.6999999999999993e+00 +4.6371948739071440e+00 +0.0000000000000000e+00 +4.6999871847548720e+00 +7.1616867818295026e-03 -1.2967565455217125e-01 +8.5757324624369832e-04
4.7999999999999989e+00 +4.6367860990961436e+00 +0.0000000000000000e+00 +4.7999863492362929e+00 +7.1616527023935124e-03 -1.2967562924010545e-01 +8.5754607789719861e-04
4.8999999999999986e+00 +4.6363687186000861e+00 +0.0000000000000000e+00 +4.8999854781692491e+00 +7.1616192993699821e-03 -1.2967560386625679e-01 +8.5751890110658782e-04
4.9999999999999982e+00 +4.6359427324237465e+00 +0.0000000000000000e+00 +4.9999845708131625e+00 +7.1615869171827570e-03 -1.2967557843270694e-01 +8.5749176617828298e-04
5.0999999999999979e+00 +4.6355081405719680e+00 +0.0000000000000000e+00 +5.0999836264274574e+00 +7.1615559003464814e-03 -1.2967555294156255e-01 +8.5746472357940110e-04
5.1999999999999975e+00 +4.6350649430496604e+00 +0.0000000000000000e+00 +5.1999826442715573e+00 +7.1615265934738548e-03 -1.2967552739495777e-01 +8.5743782394674391e-04
5.2999999999999972e+00 +4.6346131398618011e+00 +0.0000000000000000e+00 +5.2999816236048876e+00 +7.1614993412828743e-03 -1.2967550179505671e-01 +8.5741111809577207e-04
5.3999999999999968e+00 +4.6341527310134349e+00 +0.0000000000000000e+00 +5.3999805636868743e+00 +7.1614744886040653e-03 -1.2967547614405656e-01 +8.5738465702957288e-04
5.4999999999999964e+00 +4.6336837165096734e+00 +0.0000000000000000e+00 +5.4999794637769437e+00 +7.1614523803876975e-03 -1.2967545044418938e-01 +8.5735849194782472e-04
5.5999999999999961e+00 +4.6332060963556962e+00 +0.0000000000000000e+00 +5.5999783231345228e+00 +7.1614333617110110e-03 -1.2967542469772561e-01 +8.5733267425575218e-04
5.6999999999999957e+00 +4.6327198705567492e+00 +0.0000000000000000e+00 +5.6999771410190405e+00 +7.1614177777854122e-03 -1.2967539890697605e-01 +8.5730725557307363e-04
5.7999999999999954e+00 +4.6322250391181443e+00 +0.0000000000000000e+00 +5.7999759166899247e+00 +7.1614059739636719e-03 -1.2967537307429455e-01 +8.5728228774294341e-04
5.8999999999999950e+00 +4.6317216020452614e+00 +0.0000000000000000e+00 +5.8999746494066052e+00 +7.1613982957471085e-03 -1.2967534720208088e-01 +8.5725782284088586e-04
5.9999999999999947e+00 +4.6312095593435449e+00 +0.0000000000000000e+00 +5.9999733384285125e+00 +7.1613950887927562e-03 -1.2967532129278300e-01 +8.5723391318371809e-04
6.0999999999999943e+00 +4.6306889110185070e+00 +0.0000000000000000e+00 +6.0999719830150774e+00 +7.1613965705097796e-03 -1.2967529535113709e-01 +8.5721059539724189e-04
6.1999999999999940e+00 +4.6301596570757244e+00 +0.0000000000000000e+00 +6.1999705824257312e+00 +7.1614024444013134e-03 -1.2967526939091187e-01 +8.5718784242886270e-04
6.2999999999999936e+00 +4.6296217975208398e+00 +0.0000000000000000e+00 +6.2999691359199073e+00 +7.1614122854696139e-03 -1.2967524342823966e-01 +8.5716561118617590e-04
6.3999999999999932e+00 +4.6290753323595597e+00 +0.0000000000000000e+00 +6.3999676427570398e+00 +7.1614256688315473e-03 -1.2967521747938729e-01 +8.5714385846815495e-04
6.4999999999999929e+00 +4.6285202615976528e+00 +0.0000000000000000e+00 +6.4999661021965620e+00 +7.1614421697230634e-03 -1.2967519156076071e-01 +8.5712254095927410e-04
6.5999999999999925e+00 +4.6279565852409492e+00 +0.0000000000000000e+00 +6.5999645134979090e+00 +7.1614613635037003e-03 -1.2967516568891099e-01 +8.5710161522362680e-04
6.6999999999999922e+00 +4.6273843032953410e+00 +0.0000000000000000e+00 +6.6999628759205168e+00 +7.1614828256610485e-03 -1.2967513988053908e-01 +8.5708103769904407e-04
6.7999999999999918e+00 +4.6268034157667790e+00 +0.0000000000000000e+00 +6.7999611887238220e+00 +7.1615061318152512e-03 -1.2967511415250130e-01 +8.5706076469121062e-04
6.8999999999999915e+00 +4.6262139226612726e+00 +0.0000000000000000e+00 +6.8999594511672617e+00 +7.1615308577234514e-03 -1.2967508852181434e-01 +8.5704075236777387e-04
6.9999999999999911e+00 +4.6256158239848872e+00 +0.0000000000000000e+00 +6.9999576625102744e+00 +7.1615565792842789e-03 -1.2967506300566065e-01 +8.5702095675245493e-04
7.0999999999999908e+00 +4.6250091197437468e+00 +0.0000000000000000e+00 +7.0999558220122987e+00 +7.1615828725423002e-03 -1.2967503762139362e-01 +8.5700133371915553e-04
7.1999999999999904e+00 +4.6243938099440287e+00 +0.0000000000000000e+00 +7.1999539289327741e+00 +7.1616093136924793e-03 -1.2967501238654242e-01 +8.5698183898605949e-04
7.2999999999999901e+00 +4.6237698945919634e+00 +0.0000000000000000e+00 +7.2999519825311410e+00 +7.1616354790846265e-03 -1.2967498731881752e-01 +8.5696242810973404e-04
7.3999999999999897e+00 +4.6231373736938357e+00 +0.0000000000000000e+00 +7.3999499820668415e+00 +7.1616609452278424e-03 -1.2967496243611559e-01 +8.5694305647922796e-04
7.4999999999999893e+00 +4.6224962472559818e+00 +0.0000000000000000e+00 +7.4999479267993170e+00 +7.1616852887949603e-03 -1.2967493775652439e-01 +8.5692367931016432e-04
7.5999999999999890e+00 +4.6218465152847861e+00 +0.0000000000000000e+00 +7.5999458159880096e+00 +7.1617080866269688e-03 -1.2967491329832831e-01 +8.5690425163883284e-04
7.6999999999999886e+00 +4.6211881777866841e+00 +0.0000000000000000e+00 +7.6999436488923632e+00 +7.1617289157374494e-03 -1.2967488908001285e-01 +8.5688472831627754e-04
7.7999999999999883e+00 +4.6205212347681588e+00 +0.0000000000000000e+00 +7.7999414247718226e+00 +7.1617473533169872e-03 -1.2967486512026996e-01 +8.5686506400238136e-04
7.8999999999999879e+00 +4.6198456862357391e+00 +0.0000000000000000e+00 +7.8999391428858319e+00 +7.1617629767375931e-03 -1.2967484143800284e-01 +8.5684521315994809e-04
7.9999999999999876e+00 +4.6191615321959993e+00 +0.0000000000000000e+00 +7.9999368024938367e+00 +7.1617753635570981e-03 -1.2967481805233108e-01 +8.5682513004878020e-04
8.0999999999999872e+00 +4.6184687726555582e+00 +0.0000000000000000e+00 +8.0999344028552827e+00 +7.1617842063431362e-03 -1.2967479497189832e-01 +8.5680479611598831e-04
8.1999999999999869e+00 +4.6177674076210771e+00 +0.0000000000000000e+00 +8.1999319432296183e+00 +7.1617896579097822e-03 -1.2967477216256401e-01 +8.5678430250094658e-04
8.2999999999999865e+00 +4.6170574370992652e+00 +0.0000000000000000e+00 +8.2999294228762910e+00 +7.1617919862518968e-03 -1.2967474957928757e-01 +8.5676376794164156e-04
8.3999999999999861e+00 +4.6163388610968790e+00 +0.0000000000000000e+00 +8.3999268410547483e+00 +7.1617914592606103e-03 -1.2967472717682346e-01 +8.5674331130711852e-04
8.4999999999999858e+00 +4.6156116796207272e+00 +0.0000000000000000e+00 +8.4999241970244395e+00 +7.1617883447186951e-03 -1.2967470490971458e-01 +8.5672305160214757e-04
8.5999999999999854e+00 +4.6148758926776727e+00 +0.0000000000000000e+00 +8.5999214900448155e+00 +7.1617829102959482e-03 -1.2967468273228455e-01 +8.5670310797188599e-04
8.6999999999999851e+00 +4.6141315002746373e+00 +0.0000000000000000e+00 +8.6999187193753258e+00 +7.1617754235445705e-03 -1.2967466059863100e-01 +8.5668359970654940e-04
8.7999999999999847e+00 +4.6133785024186027e+00 +0.0000000000000000e+00 +8.7999158842754230e+00 +7.1617661518945403e-03 -1.2967463846261854e-01 +8.5666464624607795e-04
8.8999999999999844e+00 +4.6126168991166141e+00 +0.0000000000000000e+00 +8.8999129840045601e+00 +7.1617553626489713e-03 -1.2967461627787147e-01 +8.5664636718480846e-04
8.9999999999999840e+00 +4.6118466903757849e+00 +0.0000000000000000e+00 +8.9999100178221898e+00 +7.1617433229794747e-03 -1.2967459399776693e-01 +8.5662888227614603e-04
9.0999999999999837e+00 +4.6110678762032977e+00 +0.0000000000000000e+00 +9.0999069849877650e+00 +7.1617302999215067e-03 -1.2967457157542811e-01 +8.5661231143723969e-04
9.1999999999999833e+00 +4.6102804566064082e+00 +0.0000000000000000e+00 +9.1999038847607419e+00 +7.1617165603697222e-03 -1.2967454896371711e-01 +8.5659677475365787e-04
9.2999999999999829e+00 +4.6094844315924490e+00 +0.0000000000000000e+00 +9.2999007164005771e+00 +7.1617023710733039e-03 -1.2967452611522823e-01 +8.5658239248406808e-04
9.3999999999999826e+00 +4.6086798011688321e+00 +0.0000000000000000e+00 +9.3998974791667287e+00 +7.1616879986313164e-03 -1.2967450298228142e-01 +8.5656928506491618e-04
9.4999999999999822e+00 +4.6078665653430511e+00 +0.0000000000000000e+00 +9.4998941723186530e+00 +7.1616737094880078e-03 -1.2967447951691488e-01 +8.5655757311510993e-04
9.5999999999999819e+00 +4.6070447241226864e+00 +0.0000000000000000e+00 +9.5998907951158099e+00 +7.1616597699281550e-03 -1.2967445567087918e-01 +8.5654737744070405e-04
9.6999999999999815e+00 +4.6062142775154076e+00 +0.0000000000000000e+00 +9.6998873468176612e+00 +7.1616464460723542e-03 -1.2967443139562992e-01 +8.5653881903958713e-04
9.7999999999999812e+00 +4.6053752255289755e+00 +0.0000000000000000e+00 +9.7998838266836668e+00 +7.1616340038723478e-03 -1.2967440664232152e-01 +8.5653201910617001e-04
9.8999999999999808e+00 +4.6045275681712470e+00 +0.0000000000000000e+00 +9.8998802339732919e+00 +7.1616227091063200e-03 -1.2967438136180071e-01 +8.5652709903608017e-04
9.9999999999999805e+00 +4.6036713054501774e+00 +0.0000000000000000e+00 +9.9998765679459982e+00 +7.1616128273741886e-03 -1.2967435550459955e-01 +8.5652418043085277e-04
1.0099999999999980e+01 +4.6028064373738244e+00 +0.0000000000000000e+00 +1.0099872827861253e+01 +7.1616045765841669e-03 -1.2967432904851953e-01 +8.5652332223786333e-04
1.0199999999999980e+01 +4.6019329639503477e+00 +0.0000000000000000e+00 +1.0199869012978521e+01 +7.1615979837330061e-03 -1.2967430208192082e-01 +8.5652433110250620e-04
1.0299999999999979e+01 +4.6010508851880054e+00 +0.0000000000000000e+00 +1.0299865122557271e+01 +7.1615930278085323e-03 -1.2967427472095081e-01 +8.5652695020893652e-04
1.0399999999999979e+01 +4.6001602010951448e+00 +0.0000000000000000e+00 +1.0399861155856975e+01 +7.1615896876527372e-03 -1.2967424708177896e-01 +8.5653092257685344e-04
1.0499999999999979e+01 +4.5992609116801955e+00 +0.0000000000000000e+00 +1.0499857112137100e+01 +7.1615879419590677e-03 -1.2967421928059808e-01 +8.5653599105727960e-04
1.0599999999999978e+01 +4.5983530169516618e+00 +0.0000000000000000e+00 +1.0599852990657119e+01 +7.1615877692697387e-03 -1.2967419143362507e-01 +8.5654189832835793e-04
1.0699999999999978e+01 +4.5974365169181146e+00 +0.0000000000000000e+00 +1.0699848790676505e+01 +7.1615891479731141e-03 -1.2967416365710177e-01 +8.5654838689117779e-04
1.0799999999999978e+01 +4.5965114115881835e+00 +0.0000000000000000e+00 +1.0799844511454731e+01 +7.1615920563011005e-03 -1.2967413606729597e-01 +8.5655519906561908e-04
1.0899999999999977e+01 +4.5955777009705505e+00 +0.0000000000000000e+00 +1.0899840152251274e+01 +7.1615964723266007e-03 -1.2967410878050217e-01 +8.5656207698622474e-04
1.0999999999999977e+01 +4.5946353850739401e+00 +0.0000000000000000e+00 +1.0999835712325607e+01 +7.1616023739609919e-03 -1.2967408191304233e-01 +8.5656876259809604e-04
1.1099999999999977e+01 +4.5936844639071133e+00 +0.0000000000000000e+00 +1.1099831190937207e+01 +7.1616097389516856e-03 -1.2967405558126688e-01 +8.5657499765281456e-04
1.1199999999999976e+01 +4.5927249374788595e+00 +0.0000000000000000e+00 +1.1199826587345552e+01 +7.1616185448796759e-03 -1.2967402990155527e-01 +8.5658052370438662e-04
1.1299999999999976e+01 +4.5917568057979876e+00 +0.0000000000000000e+00 +1.1299821900810120e+01 +7.1616287691571925e-03 -1.2967400499031670e-01 +8.5658508210521714e-04
1.1399999999999975e+01 +4.5907800688733200e+00 +0.0000000000000000e+00 +1.1399817130590387e+01 +7.1616403890253566e-03 -1.2967398096399119e-01 +8.5658841400210791e-04
1.1499999999999975e+01 +4.5897947267136843e+00 +0.0000000000000000e+00 +1.1499812275945834e+01 +7.1616533815519016e-03 -1.2967395793904954e-01 +8.5659026033228270e-04
1.1599999999999975e+01 +4.5888007793279044e+00 +0.0000000000000000e+00 +1.1599807336135939e+01 +7.1616677236289355e-03 -1.2967393603199465e-01 +8.5659036181943938e-04
1.1699999999999974e+01 +4.5877982267247948e+00 +0.0000000000000000e+00 +1.1699802310420182e+01 +7.1616833919707652e-03 -1.2967391535936168e-01 +8.5658845896983136e-04
1.1799999999999974e+01 +4.5867870689131509e+00 +0.0000000000000000e+00 +1.1799797198058043e+01 +7.1617003631117516e-03 -1.2967389603771892e-01 +8.5658429206837466e-04
