# field on trajectory
# s[mm] rx[mm] ry[mm] rz[mm] bx[T] by[T] bz[T]
0.0000000000000000e+00 +4.6467000000000001e+00 +0.0000000000000000e+00 +0.0000000000000000e+00 +2.1207261102920025e-02 -3.9030368983546510e-01 +2.7375073812932744e-03
-1.0000000000000001e-01 +4.6466960996178432e+00 +0.0000000000000000e+00 -9.9999999898580119e-02 +2.1207137780549477e-02 -3.9030373227727566e-01 +2.7375202757173793e-03
-2.0000000000000001e-01 +4.6466843984708337e+00 +0.0000000000000000e+00 -1.9999999918864092e-01 +2.1207011351920338e-02 -3.9030377406863592e-01 +2.7375333558222010e-03
-3.0000000000000004e-01 +4.6466648965582076e+00 +0.0000000000000000e+00 -2.9999999726166293e-01 +2.1206882812340334e-02 -3.9030381509086332e-01 +2.7375465475826507e-03
-4.0000000000000002e-01 +4.6466375938792641e+00 +0.0000000000000000e+00 -3.9999999350912652e-01 +2.1206753157109196e-02 -3.9030385522536754e-01 +2.7375597769844101e-03
-5.0000000000000000e-01 +4.6466024904333674e+00 +0.0000000000000000e+00 -4.9999998732251177e-01 +2.1206623381515823e-02 -3.9030389435363971e-01 +2.7375729700214947e-03
-5.9999999999999998e-01 +4.6465595862199489e+00 +0.0000000000000000e+00 -5.9999997809329875e-01 +2.1206494480835399e-02 -3.9030393235724220e-01 +2.7375860526938252e-03
-6.9999999999999996e-01 +4.6465088812385105e+00 +0.0000000000000000e+00 -6.9999996521296715e-01 +2.1206367450326426e-02 -3.9030396911779619e-01 +2.7375989510047792e-03
-7.9999999999999993e-01 +4.6464503754886266e+00 +0.0000000000000000e+00 -7.9999994807299679e-01 +2.1206243285227935e-02 -3.9030400451697217e-01 +2.7376115909587659e-03
-8.9999999999999991e-01 +4.6463840689699447e+00 +0.0000000000000000e+00 -8.9999992606486723e-01 +2.1206122980756466e-02 -3.9030403843647782e-01 +2.7376238985587814e-03
-9.9999999999999989e-01 +4.6463099616821921e+00 +0.0000000000000000e+00 -9.9999989858005800e-01 +2.1206007532103294e-02 -3.9030407075804735e-01 +2.7376357998039852e-03
-1.0999999999999999e+00 +4.6462280536251734e+00 +0.0000000000000000e+00 -1.0999998650100484e+00 +2.1205897934431454e-02 -3.9030410136343119e-01 +2.7376472206872581e-03
-1.2000000000000000e+00 +4.6461383447987750e+00 +0.0000000000000000e+00 -1.1999998247463177e+00 +2.1205795182872845e-02 -3.9030413013438375e-01 +2.7376580871927669e-03
-1.3000000000000000e+00 +4.6460408352029683e+00 +0.0000000000000000e+00 -1.2999997771803451e+00 +2.1205700272525364e-02 -3.9030415695265314e-01 +2.7376683252935395e-03
-1.4000000000000001e+00 +4.6459355248378111e+00 +0.0000000000000000e+00 -1.3999997217036095e+00 +2.1205614198449966e-02 -3.9030418169997028e-01 +2.7376778609490269e-03
-1.5000000000000002e+00 +4.6458224137034492e+00 +0.0000000000000000e+00 -1.4999996577075905e+00 +2.1205537955667788e-02 -3.9030420425803769e-01 +2.7376866201026715e-03
-1.6000000000000003e+00 +4.6457015018001213e+00 +0.0000000000000000e+00 -1.5999995845837669e+00 +2.1205472539157229e-02 -3.9030422450851848e-01 +2.7376945286794780e-03
-1.7000000000000004e+00 +4.6455727891281580e+00 +0.0000000000000000e+00 -1.6999995017236178e+00 +2.1205418943851036e-02 -3.9030424233302541e-01 +2.7377015125835801e-03
-1.8000000000000005e+00 +4.6454362756879863e+00 +0.0000000000000000e+00 -1.7999994085186226e+00 +2.1205378164633429e-02 -3.9030425761311022e-01 +2.7377074976958184e-03
-1.9000000000000006e+00 +4.6452919614801322e+00 +0.0000000000000000e+00 -1.8999993043602603e+00 +2.1205351196337176e-02 -3.9030427023025205e-01 +2.7377124098712981e-03
-2.0000000000000004e+00 +4.6451398465052209e+00 +0.0000000000000000e+00 -1.9999991886400104e+00 +2.1205339033740670e-02 -3.9030428006584733e-01 +2.7377161749369714e-03
-2.1000000000000005e+00 +4.6449799307639825e+00 +0.0000000000000000e+00 -2.0999990607493522e+00 +2.1205342272528627e-02 -3.9030428703759468e-01 +2.7377187510962304e-03
-2.2000000000000006e+00 +4.6448122142572510e+00 +0.0000000000000000e+00 -2.1999989200797652e+00 +2.1205359912169708e-02 -3.9030429120870286e-01 +2.7377202261747442e-03
-2.3000000000000007e+00 +4.6446366969859625e+00 +0.0000000000000000e+00 -2.2999987660227288e+00 +2.1205390553096528e-02 -3.9030429267873745e-01 +2.7377207204412109e-03
-2.4000000000000008e+00 +4.6444533789511562e+00 +0.0000000000000000e+00 -2.3999985979697231e+00 +2.1205432795775095e-02 -3.9030429154722635e-01 +2.7377203542102903e-03
-2.5000000000000009e+00 +4.6442622601539698e+00 +0.0000000000000000e+00 -2.4999984153122283e+00 +2.1205485240711863e-02 -3.9030428791365784e-01 +2.7377192478485438e-03
-2.6000000000000010e+00 +4.6440633405956389e+00 +0.0000000000000000e+00 -2.5999982174417240e+00 +2.1205546488460684e-02 -3.9030428187747823e-01 +2.7377175217803760e-03
-2.7000000000000011e+00 +4.6438566202774947e+00 +0.0000000000000000e+00 -2.6999980037496911e+00 +2.1205615139629846e-02 -3.9030427353809005e-01 +2.7377152964939617e-03
-2.8000000000000012e+00 +4.6436420992009610e+00 +0.0000000000000000e+00 -2.7999977736276098e+00 +2.1205689794889081e-02 -3.9030426299485027e-01 +2.7377126925471808e-03
-2.9000000000000012e+00 +4.6434197773675541e+00 +0.0000000000000000e+00 -2.8999975264669615e+00 +2.1205769054976568e-02 -3.9030425034706789e-01 +2.7377098305735310e-03
-3.0000000000000013e+00 +4.6431896547788796e+00 +0.0000000000000000e+00 -2.9999972616592268e+00 +2.1205851520706018e-02 -3.9030423569400202e-01 +2.7377068312880552e-03
-3.1000000000000014e+00 +4.6429517314366304e+00 +0.0000000000000000e+00 -3.0999969785958870e+00 +2.1205935792973661e-02 -3.9030421913486035e-01 +2.7377038154932486e-03
-3.2000000000000015e+00 +4.6427060073425848e+00 +0.0000000000000000e+00 -3.1999966766684240e+00 +2.1206020472765322e-02 -3.9030420076879585e-01 +2.7377009040849567e-03
-3.3000000000000016e+00 +4.6424524824986060e+00 +0.0000000000000000e+00 -3.2999963552683198e+00 +2.1206104161163458e-02 -3.9030418069490619e-01 +2.7376982180582839e-03
-3.4000000000000017e+00 +4.6421911569066365e+00 +0.0000000000000000e+00 -3.3999960137870566e+00 +2.1206185459354279e-02 -3.9030415901223098e-01 +2.7376958785134790e-03
-3.5000000000000018e+00 +4.6419220305687006e+00 +0.0000000000000000e+00 -3.4999956516161168e+00 +2.1206262968634742e-02 -3.9030413581974926e-01 +2.7376940066618180e-03
-3.6000000000000019e+00 +4.6416451034868986e+00 +0.0000000000000000e+00 -3.5999952681469836e+00 +2.1206335290419681e-02 -3.9030411121637865e-01 +2.7376927238314847e-03
-3.7000000000000020e+00 +4.6413603756634085e+00 +0.0000000000000000e+00 -3.6999948627711396e+00 +2.1206401026248958e-02 -3.9030408530097227e-01 +2.7376921514734335e-03
-3.8000000000000020e+00 +4.6410678471004800e+00 +0.0000000000000000e+00 -3.7999944348800687e+00 +2.1206458777794486e-02 -3.9030405817231706e-01 +2.7376924111672551e-03
-3.9000000000000021e+00 +4.6407675178004348e+00 +0.0000000000000000e+00 -3.8999939838652544e+00 +2.1206507146867386e-02 -3.9030402992913177e-01 +2.7376936246270201e-03
-4.0000000000000018e+00 +4.6404593877656648e+00 +0.0000000000000000e+00 -3.9999935091181809e+00 +2.1206544735425149e-02 -3.9030400067006493e-01 +2.7376959137071326e-03
-4.1000000000000014e+00 +4.6401434569986302e+00 +0.0000000000000000e+00 -4.0999930100303326e+00 +2.1206570460198648e-02 -3.9030397045798559e-01 +2.7376993666040992e-03
-4.2000000000000011e+00 +4.6398197255018570e+00 +0.0000000000000000e+00 -4.1999924859931941e+00 +2.1206584496745208e-02 -3.9030393921286688e-01 +2.7377039363300588e-03
-4.3000000000000007e+00 +4.6394881932779404e+00 +0.0000000000000000e+00 -4.2999919363982517e+00 +2.1206587335365411e-02 -3.9030390681897714e-01 +2.7377095419720884e-03
-4.4000000000000004e+00 +4.6391488603295450e+00 +0.0000000000000000e+00 -4.3999913606369896e+00 +2.1206579466342770e-02 -3.9030387316061232e-01 +2.7377161024757912e-03
-4.5000000000000000e+00 +4.6388017266594090e+00 +0.0000000000000000e+00 -4.4999907581008944e+00 +2.1206561379940141e-02 -3.9030383812210012e-01 +2.7377235366342809e-03
-4.5999999999999996e+00 +4.6384467922703454e+00 +0.0000000000000000e+00 -4.5999901281814530e+00 +2.1206533566396096e-02 -3.9030380158780387e-01 +2.7377317630771863e-03
-4.6999999999999993e+00 +4.6380840571652442e+00 +0.0000000000000000e+00 -4.6999894702701512e+00 +2.1206496515921276e-02 -3.9030376344212592e-01 +2.7377407002596647e-03
-4.7999999999999989e+00 +4.6377135213470746e+00 +0.0000000000000000e+00 -4.7999887837584767e+00 +2.1206450718694730e-02 -3.9030372356951187e-01 +2.7377502664514171e-03
-4.8999999999999986e+00 +4.6373351848188893e+00 +0.0000000000000000e+00 -4.8999880680379180e+00 +2.1206396664860214e-02 -3.9030368185445413e-01 +2.7377603797257271e-03
-4.9999999999999982e+00 +4.6369490475838244e+00 +0.0000000000000000e+00 -4.9999873224999627e+00 +2.1206334844522563e-02 -3.9030363818149633e-01 +2.7377709579485036e-03
-5.0999999999999979e+00 +4.6365551096451023e+00 +0.0000000000000000e+00 -5.0999865465360994e+00 +2.1206265747743959e-02 -3.9030359243523632e-01 +2.7377819187673386e-03
-5.1999999999999975e+00 +4.6361533710060350e+00 +0.0000000000000000e+00 -5.1999857395378175e+00 +2.1206189864540211e-02 -3.9030354450033067e-01 +2.7377931796005706e-03
-5.2999999999999972e+00 +4.6357438316700250e+00 +0.0000000000000000e+00 -5.2999849008966073e+00 +2.1206107684877025e-02 -3.9030349426149752e-01 +2.7378046576263713e-03
-5.3999999999999968e+00 +4.6353264916405692e+00 +0.0000000000000000e+00 -5.3999840300039592e+00 +2.1206019698666260e-02 -3.9030344160352182e-01 +2.7378162697718408e-03
-5.4999999999999964e+00 +4.6349013509212593e+00 +0.0000000000000000e+00 -5.4999831262513643e+00 +2.1205926395762194e-02 -3.9030338641125811e-01 +2.7378279327021186e-03
-5.5999999999999961e+00 +4.6344684095157858e+00 +0.0000000000000000e+00 -5.5999821890303147e+00 +2.1205828265957651e-02 -3.9030332856963434e-01 +2.7378395628094962e-03
-5.6999999999999957e+00 +4.6340276674279401e+00 +0.0000000000000000e+00 -5.6999812177323026e+00 +2.1205725798980307e-02 -3.9030326796365622e-01 +2.7378510762025689e-03
-5.7999999999999954e+00 +4.6335791246616145e+00 +0.0000000000000000e+00 -5.7999802117488217e+00 +2.1205619484488798e-02 -3.9030320447841049e-01 +2.7378623886953812e-03
-5.8999999999999950e+00 +4.6331227812208082e+00 +0.0000000000000000e+00 -5.8999791704713660e+00 +2.1205509812068875e-02 -3.9030313799906891e-01 +2.7378734157965964e-03
-5.9999999999999947e+00 +4.6326586371096274e+00 +0.0000000000000000e+00 -5.9999780932914302e+00 +2.1205397271229581e-02 -3.9030306841089207e-01 +2.7378840726986877e-03
-6.0999999999999943e+00 +4.6321866923322865e+00 +0.0000000000000000e+00 -6.0999769796005099e+00 +2.1205282402819593e-02 -3.9030299568710242e-01 +2.7378942955150229e-03
-6.1999999999999940e+00 +4.6317069468931109e+00 +0.0000000000000000e+00 -6.1999758287901008e+00 +2.1205165953390160e-02 -3.9030292015269180e-01 +2.7379041052194497e-03
-6.2999999999999936e+00 +4.6312194007965282e+00 +0.0000000000000000e+00 -6.2999746402517012e+00 +2.1205048720810513e-02 -3.9030284222063910e-01 +2.7379135441361400e-03
-6.3999999999999932e+00 +4.6307240540470627e+00 +0.0000000000000000e+00 -6.3999734133768094e+00 +2.1204931502765804e-02 -3.9030276230391725e-01 +2.7379226547080042e-03
-6.4999999999999929e+00 +4.6302209066493250e+00 +0.0000000000000000e+00 -6.4999721475569237e+00 +2.1204815096749933e-02 -3.9030268081549274e-01 +2.7379314795040995e-03
-6.5999999999999925e+00 +4.6297099586080046e+00 +0.0000000000000000e+00 -6.5999708421835441e+00 +2.1204700300058436e-02 -3.9030259816832397e-01 +2.7379400612270368e-03
-6.6999999999999922e+00 +4.6291912099278623e+00 +0.0000000000000000e+00 -6.6999694966481709e+00 +2.1204587909781376e-02 -3.9030251477536271e-01 +2.7379484427203847e-03
-6.7999999999999918e+00 +4.6286646606137207e+00 +0.0000000000000000e+00 -6.7999681103423057e+00 +2.1204478722796245e-02 -3.9030243104955203e-01 +2.7379566669760648e-03
-6.8999999999999915e+00 +4.6281303106704561e+00 +0.0000000000000000e+00 -6.8999666826574506e+00 +2.1204373535760844e-02 -3.9030234740382613e-01 +2.7379647771417466e-03
-6.9999999999999911e+00 +4.6275881601029916e+00 +0.0000000000000000e+00 -6.9999652129851073e+00 +2.1204273145106249e-02 -3.9030226425111059e-01 +2.7379728165282304e-03
-7.0999999999999908e+00 +4.6270382089162876e+00 +0.0000000000000000e+00 -7.0999637007167786e+00 +2.1204178347029715e-02 -3.9030218200432132e-01 +2.7379808286168319e-03
-7.1999999999999904e+00 +4.6264804571153331e+00 +0.0000000000000000e+00 -7.1999621452439690e+00 +2.1204089937487611e-02 -3.9030210107636348e-01 +2.7379888570667641e-03
-7.2999999999999901e+00 +4.6259149047051391e+00 +0.0000000000000000e+00 -7.2999605459581822e+00 +2.1204008712188405e-02 -3.9030202188013280e-01 +2.7379969457225007e-03
-7.3999999999999897e+00 +4.6253415516907292e+00 +0.0000000000000000e+00 -7.3999589022509227e+00 +2.1203935466585597e-02 -3.9030194482851277e-01 +2.7380051386211497e-03
-7.4999999999999893e+00 +4.6247603980771324e+00 +0.0000000000000000e+00 -7.4999572135136958e+00 +2.1203870995870729e-02 -3.9030187033437619e-01 +2.7380134799998030e-03
-7.5999999999999890e+00 +4.6241714438693720e+00 +0.0000000000000000e+00 -7.5999554791380071e+00 +2.1203816094966351e-02 -3.9030179881058286e-01 +2.7380220143029010e-03
-7.6999999999999886e+00 +4.6235746890724618e+00 +0.0000000000000000e+00 -7.6999536985153609e+00 +2.1203771558519054e-02 -3.9030173066998064e-01 +2.7380307861895746e-03
-7.7999999999999883e+00 +4.6229701336913935e+00 +0.0000000000000000e+00 -7.7999518710372637e+00 +2.1203738180892464e-02 -3.9030166632540353e-01 +2.7380398405409878e-03
-7.8999999999999879e+00 +4.6223577777311311e+00 +0.0000000000000000e+00 -7.8999499960952217e+00 +2.1203716756160309e-02 -3.9030160618967241e-01 +2.7380492224676704e-03
-7.9999999999999876e+00 +4.6217376211966030e+00 +0.0000000000000000e+00 -7.9999480730807404e+00 +2.1203708078099407e-02 -3.9030155067559325e-01 +2.7380589773168479e-03
-8.0999999999999872e+00 +4.6211096640926907e+00 +0.0000000000000000e+00 -8.0999461013853260e+00 +2.1203712612088178e-02 -3.9030150007457309e-01 +2.7380691312030659e-03
-8.1999999999999869e+00 +4.6204739064242277e+00 +0.0000000000000000e+00 -8.1999440804004848e+00 +2.1203729509013849e-02 -3.9030145419172257e-01 +2.7380796323848672e-03
-8.2999999999999865e+00 +4.6198303481960004e+00 +0.0000000000000000e+00 -8.2999420095177214e+00 +2.1203757591009457e-02 -3.9030141271041469e-01 +2.7380904096210878e-03
-8.3999999999999861e+00 +4.6191789894127542e+00 +0.0000000000000000e+00 -8.3999398881285430e+00 +2.1203795680647678e-02 -3.9030137531405246e-01 +2.7381013916888859e-03
-8.4999999999999858e+00 +4.6185198300792010e+00 +0.0000000000000000e+00 -8.4999377156244549e+00 +2.1203842600956160e-02 -3.9030134168606939e-01 +2.7381125073837518e-03
-8.5999999999999854e+00 +4.6178528702000241e+00 +0.0000000000000000e+00 -8.5999354913969626e+00 +2.1203897175432820e-02 -3.9030131150993125e-01 +2.7381236855195043e-03
-8.6999999999999851e+00 +4.6171781097798856e+00 +0.0000000000000000e+00 -8.6999332148375714e+00 +2.1203958228061179e-02 -3.9030128446913659e-01 +2.7381348549282798e-03
-8.7999999999999847e+00 +4.6164955488234325e+00 +0.0000000000000000e+00 -8.7999308853377869e+00 +2.1204024583325640e-02 -3.9030126024721684e-01 +2.7381459444605124e-03
-8.8999999999999844e+00 +4.6158051873353028e+00 +0.0000000000000000e+00 -8.8999285022891161e+00 +2.1204095066226818e-02 -3.9030123852773807e-01 +2.7381568829849055e-03
-8.9999999999999840e+00 +4.6151070253201327e+00 +0.0000000000000000e+00 -8.9999260650830646e+00 +2.1204168502296873e-02 -3.9030121899430198e-01 +2.7381675993884019e-03
-9.0999999999999837e+00 +4.6144010627825605e+00 +0.0000000000000000e+00 -9.0999235731111376e+00 +2.1204243717614771e-02 -3.9030120133054591e-01 +2.7381780225761345e-03
-9.1999999999999833e+00 +4.6136872997272365e+00 +0.0000000000000000e+00 -9.1999210257648425e+00 +2.1204319538821643e-02 -3.9030118522014440e-01 +2.7381880814713686e-03
-9.2999999999999829e+00 +4.6129657361588263e+00 +0.0000000000000000e+00 -9.2999184224356846e+00 +2.1204394793136058e-02 -3.9030117034680989e-01 +2.7381977050154505e-03
-9.3999999999999826e+00 +4.6122363720820179e+00 +0.0000000000000000e+00 -9.3999157625151710e+00 +2.1204468308369334e-02 -3.9030115639429341e-01 +2.7382068221677297e-03
-9.4999999999999822e+00 +4.6114992075015300e+00 +0.0000000000000000e+00 -9.4999130453948091e+00 +2.1204538912940881e-02 -3.9030114304638586e-01 +2.7382153619054687e-03
-9.5999999999999819e+00 +4.6107542424221144e+00 +0.0000000000000000e+00 -9.5999102704661059e+00 +2.1204605435893437e-02 -3.9030112998691835e-01 +2.7382232532237741e-03
-9.6999999999999815e+00 +4.6100014768485673e+00 +0.0000000000000000e+00 -9.6999074371205687e+00 +2.1204666706908466e-02 -3.9030111689976327e-01 +2.7382304251354714e-03
-9.7999999999999812e+00 +4.6092409107857302e+00 +0.0000000000000000e+00 -9.7999045447497046e+00 +2.1204721556321377e-02 -3.9030110346883562e-01 +2.7382368066710167e-03
-9.8999999999999808e+00 +4.6084725442385004e+00 +0.0000000000000000e+00 -9.8999015927450245e+00 +2.1204768815136856e-02 -3.9030108937809310e-01 +2.7382423268783557e-03
-9.9999999999999805e+00 +4.6076963772118358e+00 +0.0000000000000000e+00 -9.9998985804980354e+00 +2.1204807315044216e-02 -3.9030107431153738e-01 +2.7382469148228106e-03
-1.0099999999999980e+01 +4.6069124097107617e+00 +0.0000000000000000e+00 -1.0099895507400248e+01 +2.1204836135492594e-02 -3.9030105798438863e-01 +2.7382505390336396e-03
-1.0199999999999980e+01 +4.6061206417403744e+00 +0.0000000000000000e+00 -1.0199892372843172e+01 +2.1204855347553151e-02 -3.9030104023695933e-01 +2.7382533263155175e-03
-1.0299999999999979e+01 +4.6053210733058467e+00 +0.0000000000000000e+00 -1.0299889176218317e+01 +2.1204865270634851e-02 -3.9030102094089830e-01 +2.7382554431515937e-03
-1.0399999999999979e+01 +4.6045137044124305e+00 +0.0000000000000000e+00 -1.0399885916917196e+01 +2.1204866223820812e-02 -3.9030099996781986e-01 +2.7382570560130722e-03
-1.0499999999999979e+01 +4.6036985350654573e+00 +0.0000000000000000e+00 -1.0499882594331321e+01 +2.1204858525858006e-02 -3.9030097718930229e-01 +2.7382583313586223e-03
-1.0599999999999978e+01 +4.6028755652703444e+00 +0.0000000000000000e+00 -1.0599879207852208e+01 +2.1204842495146790e-02 -3.9030095247688812e-01 +2.7382594356337711e-03
-1.0699999999999978e+01 +4.6020447950325920e+00 +0.0000000000000000e+00 -1.0699875756871368e+01 +2.1204818449730631e-02 -3.9030092570208264e-01 +2.7382605352703382e-03
-1.0799999999999978e+01 +4.6012062243577923e+00 +0.0000000000000000e+00 -1.0799872240780315e+01 +2.1204786707285664e-02 -3.9030089673635443e-01 +2.7382617966858320e-03
-1.0899999999999977e+01 +4.6003598532516259e+00 +0.0000000000000000e+00 -1.0899868658970567e+01 +2.1204747585110297e-02 -3.9030086545113352e-01 +2.7382633862828780e-03
-1.0999999999999977e+01 +4.5995056817198696e+00 +0.0000000000000000e+00 -1.0999865010833640e+01 +2.1204701400114795e-02 -3.9030083171781171e-01 +2.7382654704486476e-03
-1.1099999999999977e+01 +4.5986437097683952e+00 +0.0000000000000000e+00 -1.1099861295761050e+01 +2.1204648468810885e-02 -3.9030079540774149e-01 +2.7382682155542796e-03
-1.1199999999999976e+01 +4.5977739374031730e+00 +0.0000000000000000e+00 -1.1199857513144318e+01 +2.1204589107301285e-02 -3.9030075639223621e-01 +2.7382717879543242e-03
-1.1299999999999976e+01 +4.5968963646302763e+00 +0.0000000000000000e+00 -1.1299853662374963e+01 +2.1204523631269255e-02 -3.9030071454256887e-01 +2.7382763539861737e-03
-1.1399999999999975e+01 +4.5960109914558824e+00 +0.0000000000000000e+00 -1.1399849742844506e+01 +2.1204452355968160e-02 -3.9030066972997185e-01 +2.7382820799695100e-03
-1.1499999999999975e+01 +4.5951178178862735e+00 +0.0000000000000000e+00 -1.1499845753944467e+01 +2.1204375596210988e-02 -3.9030062182563718e-01 +2.7382891322057542e-03
-1.1599999999999975e+01 +4.5942168439278435e+00 +0.0000000000000000e+00 -1.1599841695066370e+01 +2.1204293666359824e-02 -3.9030057070071489e-01 +2.7382976769775233e-03
-1.1699999999999974e+01 +4.5933080695870956e+00 +0.0000000000000000e+00 -1.1699837565601742e+01 +2.1204206880315390e-02 -3.9030051622631384e-01 +2.7383078805480808e-03
