# field on trajectory
# s[mm] rx[mm] ry[mm] rz[mm] bx[T] by[T] bz[T]
0.0000000000000000e+00 +4.6467000000000001e+00 +0.0000000000000000e+00 +0.0000000000000000e+00 +2.3249295499383871e-02 -4.3347464812964409e-01 -4.5839671924535318e-03
1.0000000000000001e-01 +4.6466956848869554e+00 +0.0000000000000000e+00 +9.9999999875865331e-02 +2.3249259483636615e-02 -4.3347482527133430e-01 -4.5839462461731472e-03
2.0000000000000001e-01 +4.6466827395455059e+00 +0.0000000000000000e+00 +1.9999999900692228e-01 +2.3249224575609781e-02 -4.3347500165661712e-01 -4.5839236750661065e-03
3.0000000000000004e-01 +4.6466611639722357e+00 +0.0000000000000000e+00 +2.9999999664836169e-01 +2.3249190707664732e-02 -4.3347517716092526e-01 -4.5838995744010343e-03
4.0000000000000002e-01 +4.6466309581638114e+00 +0.0000000000000000e+00 +3.9999999205537351e-01 +2.3249157812159051e-02 -4.3347535165972928e-01 -4.5838740394692221e-03
5.0000000000000000e-01 +4.6465921221169841e+00 +0.0000000000000000e+00 +4.9999998448314675e-01 +2.3249125821449425e-02 -4.3347552502852083e-01 -4.5838471655781183e-03
5.9999999999999998e-01 +4.6465446558285919e+00 +0.0000000000000000e+00 +5.9999997318686971e-01 +2.3249094667894460e-02 -4.3347569714279593e-01 -4.5838190480448106e-03
6.9999999999999996e-01 +4.6464885592955625e+00 +0.0000000000000000e+00 +6.9999995742172949e-01 +2.3249064283857569e-02 -4.3347586787803755e-01 -4.5837897821895254e-03
7.9999999999999993e-01 +4.6464238325149134e+00 +0.0000000000000000e+00 +7.9999993644291278e-01 +2.3249034601709795e-02 -4.3347603710970040e-01 -4.5837594633291292e-03
8.9999999999999991e-01 +4.6463504754837581e+00 +0.0000000000000000e+00 +8.9999990950560516e-01 +2.3249005553832726e-02 -4.3347620471319287e-01 -4.5837281867706090e-03
9.9999999999999989e-01 +4.6462684881993068e+00 +0.0000000000000000e+00 +9.9999987586499151e-01 +2.3248977072621260e-02 -4.3347637056386057e-01 -4.5836960478045866e-03
1.0999999999999999e+00 +4.6461778706588674e+00 +0.0000000000000000e+00 +1.0999998347762561e+00 +2.3248949090486484e-02 -4.3347653453697010e-01 -4.5836631416988011e-03
1.2000000000000000e+00 +4.6460786228598510e+00 +0.0000000000000000e+00 +1.1999997854945819e+00 +2.3248921539858525e-02 -4.3347669650769177e-01 -4.5836295636916121e-03
1.3000000000000000e+00 +4.6459707447997722e+00 +0.0000000000000000e+00 +1.2999997272751518e+00 +2.3248894353189359e-02 -4.3347685635108335e-01 -4.5835954089854976e-03
1.4000000000000001e+00 +4.6458542364762527e+00 +0.0000000000000000e+00 +1.3999996593731474e+00 +2.3248867462955635e-02 -4.3347701394207255e-01 -4.5835607727405386e-03
1.5000000000000002e+00 +4.6457290978870223e+00 +0.0000000000000000e+00 +1.4999995810437501e+00 +2.3248840801661490e-02 -4.3347716915544166e-01 -4.5835257500679259e-03
1.6000000000000003e+00 +4.6455953290299234e+00 +0.0000000000000000e+00 +1.5999994915421403e+00 +2.3248814301841385e-02 -4.3347732186580923e-01 -4.5834904360234335e-03
1.7000000000000004e+00 +4.6454529299029126e+00 +0.0000000000000000e+00 +1.6999993901234980e+00 +2.3248787896062849e-02 -4.3347747194761488e-01 -4.5834549256009299e-03
1.8000000000000005e+00 +4.6453019005040614e+00 +0.0000000000000000e+00 +1.7999992760430024e+00 +2.3248761516929343e-02 -4.3347761927510131e-01 -4.5834193137258387e-03
1.9000000000000006e+00 +4.6451422408315626e+00 +0.0000000000000000e+00 +1.8999991485558319e+00 +2.3248735097082959e-02 -4.3347776372229824e-01 -4.5833836952486433e-03
2.0000000000000004e+00 +4.6449739508837293e+00 +0.0000000000000000e+00 +1.9999990069171647e+00 +2.3248708569207289e-02 -4.3347790516300616e-01 -4.5833481649383530e-03
2.1000000000000005e+00 +4.6447970306590003e+00 +0.0000000000000000e+00 +2.0999988503821783e+00 +2.3248681869359862e-02 -4.3347804349986235e-01 -4.5833127987616150e-03
2.2000000000000006e+00 +4.6446114801559375e+00 +0.0000000000000000e+00 +2.1999986782060499e+00 +2.3248654946941717e-02 -4.3347817875169575e-01 -4.5832775977526262e-03
2.3000000000000007e+00 +4.6444172993732309e+00 +0.0000000000000000e+00 +2.2999984896439560e+00 +2.3248627754666910e-02 -4.3347831096647754e-01 -4.5832425441922880e-03
2.4000000000000008e+00 +4.6442144883096947e+00 +0.0000000000000000e+00 +2.3999982839510730e+00 +2.3248600245222028e-02 -4.3347844019228593e-01 -4.5832076203298410e-03
2.5000000000000009e+00 +4.6440030469642659e+00 +0.0000000000000000e+00 +2.4999980603825760e+00 +2.3248572371261059e-02 -4.3347856647732996e-01 -4.5831728083839379e-03
2.6000000000000010e+00 +4.6437829753360056e+00 +0.0000000000000000e+00 +2.5999978181936405e+00 +2.3248544085400273e-02 -4.3347868986997362e-01 -4.5831380905437188e-03
2.7000000000000011e+00 +4.6435542734240958e+00 +0.0000000000000000e+00 +2.6999975566394419e+00 +2.3248515340213105e-02 -4.3347881041875835e-01 -4.5831034489699227e-03
2.8000000000000012e+00 +4.6433169412278401e+00 +0.0000000000000000e+00 +2.7999972749751540e+00 +2.3248486088225068e-02 -4.3347892817242711e-01 -4.5830688657959489e-03
2.9000000000000012e+00 +4.6430709787466613e+00 +0.0000000000000000e+00 +2.8999969724559516e+00 +2.3248456281908695e-02 -4.3347904317994845e-01 -4.5830343231289747e-03
3.0000000000000013e+00 +4.6428163859801019e+00 +0.0000000000000000e+00 +2.9999966483370080e+00 +2.3248425873678501e-02 -4.3347915549053945e-01 -4.5829998030510353e-03
3.1000000000000014e+00 +4.6425531629278218e+00 +0.0000000000000000e+00 +3.0999963018734973e+00 +2.3248394815885982e-02 -4.3347926515368990e-01 -4.5829652876201400e-03
3.2000000000000015e+00 +4.6422813095895981e+00 +0.0000000000000000e+00 +3.1999959323205927e+00 +2.3248363060814577e-02 -4.3347937221918409e-01 -4.5829307588713649e-03
3.3000000000000016e+00 +4.6420008259653240e+00 +0.0000000000000000e+00 +3.2999955389334672e+00 +2.3248330560674792e-02 -4.3347947673712695e-01 -4.5828961988179737e-03
3.4000000000000017e+00 +4.6417117120550087e+00 +0.0000000000000000e+00 +3.3999951209672936e+00 +2.3248297267599204e-02 -4.3347957875796528e-01 -4.5828615894525230e-03
3.5000000000000018e+00 +4.6414139678587727e+00 +0.0000000000000000e+00 +3.4999946776772446e+00 +2.3248263133637623e-02 -4.3347967833251194e-01 -4.5828269127479821e-03
3.6000000000000019e+00 +4.6411075933768524e+00 +0.0000000000000000e+00 +3.5999942083184928e+00 +2.3248228110752184e-02 -4.3347977551196981e-01 -4.5827921506588687e-03
3.7000000000000020e+00 +4.6407925886095942e+00 +0.0000000000000000e+00 +3.6999937121462105e+00 +2.3248192150812568e-02 -4.3347987034795427e-01 -4.5827572851223578e-03
3.8000000000000020e+00 +4.6404689535574564e+00 +0.0000000000000000e+00 +3.7999931884155700e+00 +2.3248155205591189e-02 -4.3347996289251672e-01 -4.5827222980594330e-03
3.9000000000000021e+00 +4.6401366882210064e+00 +0.0000000000000000e+00 +3.8999926363817430e+00 +2.3248117226758472e-02 -4.3348005319816879e-01 -4.5826871713760186e-03
4.0000000000000018e+00 +4.6397957926009212e+00 +0.0000000000000000e+00 +3.9999920552999013e+00 +2.3248078165878119e-02 -4.3348014131790424e-01 -4.5826518869641238e-03
4.1000000000000014e+00 +4.6394462666979859e+00 +0.0000000000000000e+00 +4.0999914444252168e+00 +2.3248038011139966e-02 -4.3348022726453150e-01 -4.5826164396799759e-03
4.2000000000000011e+00 +4.6390881105130930e+00 +0.0000000000000000e+00 +4.1999908030128612e+00 +2.3247996897707821e-02 -4.3348031088827194e-01 -4.5825808763354610e-03
4.3000000000000007e+00 +4.6387213240472454e+00 +0.0000000000000000e+00 +4.2999901303180064e+00 +2.3247954997676779e-02 -4.3348039199831317e-01 -4.5825452568482080e-03
4.4000000000000004e+00 +4.6383459073015603e+00 +0.0000000000000000e+00 +4.3999894255958241e+00 +2.3247912483357266e-02 -4.3348047040341253e-01 -4.5825096412792790e-03
4.5000000000000000e+00 +4.6379618602772732e+00 +0.0000000000000000e+00 +4.4999886881014861e+00 +2.3247869527288825e-02 -4.3348054591186580e-01 -4.5824740898426876e-03
4.5999999999999996e+00 +4.6375691829757413e+00 +0.0000000000000000e+00 +4.5999879170901634e+00 +2.3247826302253818e-02 -4.3348061833147417e-01 -4.5824386629148986e-03
4.6999999999999993e+00 +4.6371678753984487e+00 +0.0000000000000000e+00 +4.6999871118170287e+00 +2.3247782981291057e-02 -4.3348068746951324e-01 -4.5824034210443293e-03
4.7999999999999989e+00 +4.6367579375470074e+00 +0.0000000000000000e+00 +4.7999862715372537e+00 +2.3247739737709407e-02 -4.3348075313269963e-01 -4.5823684249608060e-03
4.8999999999999986e+00 +4.6363393694231645e+00 +0.0000000000000000e+00 +4.8999853955060102e+00 +2.3247696745101354e-02 -4.3348081512715980e-01 -4.5823337355850322e-03
4.9999999999999982e+00 +4.6359121710288038e+00 +0.0000000000000000e+00 +4.9999844829784710e+00 +2.3247654177356528e-02 -4.3348087325839846e-01 -4.5822994140380501e-03
5.0999999999999979e+00 +4.6354763423659495e+00 +0.0000000000000000e+00 +5.0999835332098096e+00 +2.3247612208675144e-02 -4.3348092733126548e-01 -4.5822655216506379e-03
5.1999999999999975e+00 +4.6350318834367723e+00 +0.0000000000000000e+00 +5.1999825454551978e+00 +2.3247571013581339e-02 -4.3348097714992478e-01 -4.5822321199727439e-03
5.2999999999999972e+00 +4.6345787942435903e+00 +0.0000000000000000e+00 +5.2999815189698101e+00 +2.3247530766936576e-02 -4.3348102251782250e-01 -4.5821992707828748e-03
5.3999999999999968e+00 +4.6341170747888754e+00 +0.0000000000000000e+00 +5.3999804530088200e+00 +2.3247491643952883e-02 -4.3348106323765484e-01 -4.5821670360974721e-03
5.4999999999999964e+00 +4.6336467250752564e+00 +0.0000000000000000e+00 +5.4999793468274021e+00 +2.3247453820206085e-02 -4.3348109911133709e-01 -4.5821354781802742e-03
5.5999999999999961e+00 +4.6331677451055233e+00 +0.0000000000000000e+00 +5.5999781996807307e+00 +2.3247417471648889e-02 -4.3348112993997084e-01 -4.5821046595516468e-03
5.6999999999999957e+00 +4.6326801348826301e+00 +0.0000000000000000e+00 +5.6999770108239822e+00 +2.3247382774624060e-02 -4.3348115552381322e-01 -4.5820746429979043e-03
5.7999999999999954e+00 +4.6321838944096987e+00 +0.0000000000000000e+00 +5.7999757795123319e+00 +2.3247349905877311e-02 -4.3348117566224531e-01 -4.5820454915806190e-03
5.8999999999999950e+00 +4.6316790236900260e+00 +0.0000000000000000e+00 +5.8999745050009578e+00 +2.3247319042570321e-02 -4.3348119015374037e-01 -4.5820172686458788e-03
5.9999999999999947e+00 +4.6311655227270832e+00 +0.0000000000000000e+00 +5.9999731865450370e+00 +2.3247290362293564e-02 -4.3348119879583275e-01 -4.5819900378335603e-03
6.0999999999999943e+00 +4.6306433915245240e+00 +0.0000000000000000e+00 +6.0999718233997484e+00 +2.3247263963021066e-02 -4.3348120150154301e-01 -4.5819638354944649e-03
6.1999999999999940e+00 +4.6301126300861819e+00 +0.0000000000000000e+00 +6.1999704148202710e+00 +2.3247239622453612e-02 -4.3348119864960738e-01 -4.5819385876395601e-03
6.2999999999999936e+00 +4.6295732384160670e+00 +0.0000000000000000e+00 +6.2999689600617854e+00 +2.3247217037905367e-02 -4.3348119073581959e-01 -4.5819141924181078e-03
6.3999999999999932e+00 +4.6290252165183530e+00 +0.0000000000000000e+00 +6.3999674583794741e+00 +2.3247195906417599e-02 -4.3348117825654092e-01 -4.5818905476924902e-03
6.4999999999999929e+00 +4.6284685643973695e+00 +0.0000000000000000e+00 +6.4999659090285178e+00 +2.3247175924743631e-02 -4.3348116170873235e-01 -4.5818675510241984e-03
6.5999999999999925e+00 +4.6279032820575914e+00 +0.0000000000000000e+00 +6.5999643112641007e+00 +2.3247156789333947e-02 -4.3348114158998358e-01 -4.5818450996598275e-03
6.6999999999999922e+00 +4.6273293695036282e+00 +0.0000000000000000e+00 +6.6999626643414061e+00 +2.3247138196321265e-02 -4.3348111839854414e-01 -4.5818230905171091e-03
6.7999999999999918e+00 +4.6267468267402165e+00 +0.0000000000000000e+00 +6.7999609675156192e+00 +2.3247119841505681e-02 -4.3348109263335272e-01 -4.5818014201709856e-03
6.8999999999999915e+00 +4.6261556537722068e+00 +0.0000000000000000e+00 +6.8999592200419260e+00 +2.3247101420339894e-02 -4.3348106479406834e-01 -4.5817799848397109e-03
6.9999999999999911e+00 +4.6255558506045560e+00 +0.0000000000000000e+00 +6.9999574211755125e+00 +2.3247082627914469e-02 -4.3348103538109872e-01 -4.5817586803709809e-03
7.0999999999999908e+00 +4.6249474172423160e+00 +0.0000000000000000e+00 +7.0999555701715655e+00 +2.3247063158943208e-02 -4.3348100489563229e-01 -4.5817374022281091e-03
7.1999999999999904e+00 +4.6243303536906248e+00 +0.0000000000000000e+00 +7.1999536662852730e+00 +2.3247042707748505e-02 -4.3348097383966661e-01 -4.5817160454762291e-03
7.2999999999999901e+00 +4.6237046599546963e+00 +0.0000000000000000e+00 +7.2999517087718235e+00 +2.3247020968246802e-02 -4.3348094271603821e-01 -4.5816945047685471e-03
7.3999999999999897e+00 +4.6230703360398087e+00 +0.0000000000000000e+00 +7.3999496968864058e+00 +2.3246997633934213e-02 -4.3348091202845379e-01 -4.5816726743326238e-03
7.4999999999999893e+00 +4.6224273819512973e+00 +0.0000000000000000e+00 +7.4999476298842094e+00 +2.3246972397872014e-02 -4.3348088228151793e-01 -4.5816504479566991e-03
7.5999999999999890e+00 +4.6217757976945428e+00 +0.0000000000000000e+00 +7.5999455070204238e+00 +2.3246944952672367e-02 -4.3348085398076380e-01 -4.5816277189760545e-03
7.6999999999999886e+00 +4.6211155832749604e+00 +0.0000000000000000e+00 +7.6999433275502396e+00 +2.3246914990484084e-02 -4.3348082763268331e-01 -4.5816043802594242e-03
7.7999999999999883e+00 +4.6204467386979919e+00 +0.0000000000000000e+00 +7.7999410907288471e+00 +2.3246882202978408e-02 -4.3348080374475445e-01 -4.5815803241954518e-03
7.8999999999999879e+00 +4.6197692639690935e+00 +0.0000000000000000e+00 +7.8999387958114378e+00 +2.3246846281334919e-02 -4.3348078282547281e-01 -4.5815554426791730e-03
7.9999999999999876e+00 +4.6190831590937265e+00 +0.0000000000000000e+00 +7.9999364420532020e+00 +2.3246806916227575e-02 -4.3348076538437946e-01 -4.5815296270985632e-03
8.0999999999999872e+00 +4.6183884240773487e+00 +0.0000000000000000e+00 +8.0999340287093311e+00 +2.3246763910774161e-02 -4.3348075185689589e-01 -4.5815028035320173e-03
8.1999999999999869e+00 +4.6176850589254030e+00 +0.0000000000000000e+00 +8.1999315550350165e+00 +2.3246717520380079e-02 -4.3348074237779993e-01 -4.5814750389215481e-03
8.2999999999999865e+00 +4.6169730636433171e+00 +0.0000000000000000e+00 +8.2999290202854485e+00 +2.3246668113590163e-02 -4.3348073700642409e-01 -4.5814464358033945e-03
8.3999999999999861e+00 +4.6162524382365007e+00 +0.0000000000000000e+00 +8.3999264237158187e+00 +2.3246616058713841e-02 -4.3348073580203378e-01 -4.5814170970445390e-03
8.4999999999999858e+00 +4.6155231827103451e+00 +0.0000000000000000e+00 +8.4999237645813164e+00 +2.3246561723819729e-02 -4.3348073882382315e-01 -4.5813871258543696e-03
8.5999999999999854e+00 +4.6147852970702221e+00 +0.0000000000000000e+00 +8.5999210421371330e+00 +2.3246505476729986e-02 -4.3348074613090865e-01 -4.5813566257962924e-03
8.6999999999999851e+00 +4.6140387813214820e+00 +0.0000000000000000e+00 +8.6999182556384600e+00 +2.3246447685014774e-02 -4.3348075778232270e-01 -4.5813257007993029e-03
8.7999999999999847e+00 +4.6132836354694531e+00 +0.0000000000000000e+00 +8.7999154043404868e+00 +2.3246388715986752e-02 -4.3348077383700928e-01 -4.5812944551694990e-03
8.8999999999999844e+00 +4.6125198595194403e+00 +0.0000000000000000e+00 +8.8999124874984030e+00 +2.3246328936695437e-02 -4.3348079435381726e-01 -4.5812629936015509e-03
8.9999999999999840e+00 +4.6117474534767231e+00 +0.0000000000000000e+00 +8.9999095043673982e+00 +2.3246268713921575e-02 -4.3348081939149474e-01 -4.5812314211901165e-03
9.0999999999999837e+00 +4.6109664173465568e+00 +0.0000000000000000e+00 +9.0999064542026638e+00 +2.3246208414171562e-02 -4.3348084900868405e-01 -4.5811998434412103e-03
9.1999999999999833e+00 +4.6101767511341691e+00 +0.0000000000000000e+00 +9.1999033362593856e+00 +2.3246148403671750e-02 -4.3348088326391543e-01 -4.5811683662835070e-03
9.2999999999999829e+00 +4.6093784548447587e+00 +0.0000000000000000e+00 +9.2999001497927551e+00 +2.3246089048362787e-02 -4.3348092221560197e-01 -4.5811370960795990e-03
9.3999999999999826e+00 +4.6085715284834974e+00 +0.0000000000000000e+00 +9.3998968940579584e+00 +2.3246030713893927e-02 -4.3348096592203328e-01 -4.5811061396371939e-03
9.4999999999999822e+00 +4.6077559720555241e+00 +0.0000000000000000e+00 +9.4998935683101848e+00 +2.3245973765617288e-02 -4.3348101444137077e-01 -4.5810756042202541e-03
9.5999999999999819e+00 +4.6069317855659477e+00 +0.0000000000000000e+00 +9.5998901718046206e+00 +2.3245918568582165e-02 -4.3348106783164164e-01 -4.5810455975600801e-03
9.6999999999999815e+00 +4.6060989690198433e+00 +0.0000000000000000e+00 +9.6998867037964533e+00 +2.3245865487529226e-02 -4.3348112615073325e-01 -4.5810162278663268e-03
9.7999999999999812e+00 +4.6052575224222538e+00 +0.0000000000000000e+00 +9.7998831635408692e+00 +2.3245814886884712e-02 -4.3348118945638786e-01 -4.5809876038379648e-03
9.8999999999999808e+00 +4.6044074457781852e+00 +0.0000000000000000e+00 +9.8998795502930523e+00 +2.3245767130754710e-02 -4.3348125780619717e-01 -4.5809598346741830e-03
9.9999999999999805e+00 +4.6035487390926084e+00 +0.0000000000000000e+00 +9.9998758633081888e+00 +2.3245722582919227e-02 -4.3348133125759658e-01 -4.5809330300852005e-03
1.0099999999999980e+01 +4.6026814023704574e+00 +0.0000000000000000e+00 +1.0099872101841463e+01 +2.3245681497926229e-02 -4.3348140975417881e-01 -4.5809072761974949e-03
1.0199999999999980e+01 +4.6018054356166305e+00 +0.0000000000000000e+00 +1.0199868265148059e+01 +2.3245643693087157e-02 -4.3348149278258158e-01 -4.5808825626428972e-03
1.0299999999999979e+01 +4.6009208388360001e+00 +0.0000000000000000e+00 +1.0299864352483159e+01 +2.3245608876567774e-02 -4.3348157971372359e-01 -4.5808588546279389e-03
1.0399999999999979e+01 +4.6000276120334256e+00 +0.0000000000000000e+00 +1.0399860363101944e+01 +2.3245576757202128e-02 -4.3348166991721465e-01 -4.5808361171528911e-03
1.0499999999999979e+01 +4.5991257552137652e+00 +0.0000000000000000e+00 +1.0499856296259598e+01 +2.3245547044511018e-02 -4.3348176276132566e-01 -4.5808143150058720e-03
1.0599999999999978e+01 +4.5982152683818889e+00 +0.0000000000000000e+00 +1.0599852151211302e+01 +2.3245519448720591e-02 -4.3348185761295954e-01 -4.5807934127569828e-03
1.0699999999999978e+01 +4.5972961515426904e+00 +0.0000000000000000e+00 +1.0699847927212236e+01 +2.3245493680780757e-02 -4.3348195383762100e-01 -4.5807733747524710e-03
1.0799999999999978e+01 +4.5963684047011020e+00 +0.0000000000000000e+00 +1.0799843623517582e+01 +2.3245469452383673e-02 -4.3348205079938723e-01 -4.5807541651089181e-03
1.0899999999999977e+01 +4.5954320278621035e+00 +0.0000000000000000e+00 +1.0899839239382521e+01 +2.3245446475982236e-02 -4.3348214786087869e-01 -4.5807357477074834e-03
1.0999999999999977e+01 +4.5944870210307389e+00 +0.0000000000000000e+00 +1.0999834774062235e+01 +2.3245424464808449e-02 -4.3348224438322980e-01 -4.5807180861881522e-03
1.1099999999999977e+01 +4.5935333842121260e+00 +0.0000000000000000e+00 +1.1099830226811903e+01 +2.3245403132891876e-02 -4.3348233972606087e-01 -4.5807011439440385e-03
1.1199999999999976e+01 +4.5925711174114703e+00 +0.0000000000000000e+00 +1.1199825596886710e+01 +2.3245382195077994e-02 -4.3348243324744801e-01 -4.5806848841157058e-03
1.1299999999999976e+01 +4.5916002206340787e+00 +0.0000000000000000e+00 +1.1299820883541836e+01 +2.3245361367046601e-02 -4.3348252430389606e-01 -4.5806692695855473e-03
1.1399999999999975e+01 +4.5906206938853709e+00 +0.0000000000000000e+00 +1.1399816086032462e+01 +2.3245340365330089e-02 -4.3348261225030882e-01 -4.5806542629721649e-03
1.1499999999999975e+01 +4.5896325371708935e+00 +0.0000000000000000e+00 +1.1499811203613776e+01 +2.3245318907331836e-02 -4.3348269643996273e-01 -4.5806398266248285e-03
1.1599999999999975e+01 +4.5886357504963309e+00 +0.0000000000000000e+00 +1.1599806235540960e+01 +2.3245296711344395e-02 -4.3348277622447678e-01 -4.5806259226179322e-03
1.1699999999999974e+01 +4.5876303338675211e+00 +0.0000000000000000e+00 +1.1699801181069200e+01 +2.3245273496567846e-02 -4.3348285095378680e-01 -4.5806125127455157e-03
1.1799999999999974e+01 +4.5866162872904654e+00 +0.0000000000000000e+00 +1.1799796039453682e+01 +2.3245248983127957e-02 -4.3348291997611654e-01 -4.5805995585158129e-03
