# field on trajectory
# s[mm] rx[mm] ry[mm] rz[mm] bx[T] by[T] bz[T]
0.0000000000000000e+00 +4.6467000000000001e+00 +0.0000000000000000e+00 +0.0000000000000000e+00 +1.1821858775348415e-02 -2.1669073584962606e-01 +1.4767372683892810e-03
1.0000000000000001e-01 +4.6466978345664645e+00 +0.0000000000000000e+00 +9.9999999968739317e-02 +1.1821857949311695e-02 -2.1669077479235940e-01 +1.4767105934920424e-03
2.0000000000000001e-01 +4.6466913382653354e+00 +0.0000000000000000e+00 +1.9999999974991450e-01 +1.1821856945533688e-02 -2.1669081566735465e-01 +1.4766815491513037e-03
3.0000000000000004e-01 +4.6466805110958092e+00 +0.0000000000000000e+00 +2.9999999915596132e-01 +1.1821855614057302e-02 -2.1669085821675596e-01 +1.4766503274687961e-03
4.0000000000000002e-01 +4.6466653530570561e+00 +0.0000000000000000e+00 +3.9999999799931546e-01 +1.1821853804948238e-02 -2.1669090218271389e-01 +1.4766171205499953e-03
5.0000000000000000e-01 +4.6466458641482262e+00 +0.0000000000000000e+00 +4.9999999609241241e-01 +1.1821851368290339e-02 -2.1669094730738553e-01 +1.4765821205054461e-03
5.9999999999999998e-01 +4.6466220443684545e+00 +0.0000000000000000e+00 +5.9999999324768760e-01 +1.1821848154180983e-02 -2.1669099333293315e-01 +1.4765455194520700e-03
6.9999999999999996e-01 +4.6465938937168660e+00 +0.0000000000000000e+00 +6.9999998927757645e-01 +1.1821844012726441e-02 -2.1669104000152364e-01 +1.4765075095144848e-03
7.9999999999999993e-01 +4.6465614121925816e+00 +0.0000000000000000e+00 +7.9999998399451400e-01 +1.1821838794037316e-02 -2.1669108705532825e-01 +1.4764682828263252e-03
8.9999999999999991e-01 +4.6465245997947218e+00 +0.0000000000000000e+00 +8.9999997721093539e-01 +1.1821832348223855e-02 -2.1669113423652142e-01 +1.4764280315315533e-03
9.9999999999999989e-01 +4.6464834565224136e+00 +0.0000000000000000e+00 +9.9999996873927555e-01 +1.1821824525391360e-02 -2.1669118128728029e-01 +1.4763869477857770e-03
1.0999999999999999e+00 +4.6464379823747937e+00 +0.0000000000000000e+00 +1.0999999583919693e+00 +1.1821815175635582e-02 -2.1669122794978418e-01 +1.4763452237575648e-03
1.2000000000000000e+00 +4.6463881773510156e+00 +0.0000000000000000e+00 +1.1999999459814514e+00 +1.1821804149038093e-02 -2.1669127396621390e-01 +1.4763030516297653e-03
1.3000000000000000e+00 +4.6463340414502534e+00 +0.0000000000000000e+00 +1.2999999313201565e+00 +1.1821791295661679e-02 -2.1669131907875072e-01 +1.4762606236008121e-03
1.4000000000000001e+00 +4.6462755746717077e+00 +0.0000000000000000e+00 +1.3999999142205188e+00 +1.1821776465545693e-02 -2.1669136302957615e-01 +1.4762181318860438e-03
1.5000000000000002e+00 +4.6462127770146093e+00 +0.0000000000000000e+00 +1.4999998944949731e+00 +1.1821759508701504e-02 -2.1669140556087108e-01 +1.4761757687190105e-03
1.6000000000000003e+00 +4.6461456484782273e+00 +0.0000000000000000e+00 +1.5999998719559534e+00 +1.1821740275107847e-02 -2.1669144641481511e-01 +1.4761337263527871e-03
1.7000000000000004e+00 +4.6460741890618706e+00 +0.0000000000000000e+00 +1.6999998464158939e+00 +1.1821718614706194e-02 -2.1669148533358579e-01 +1.4760921970612786e-03
1.8000000000000005e+00 +4.6459983987648972e+00 +0.0000000000000000e+00 +1.7999998176872289e+00 +1.1821694377396216e-02 -2.1669152205935815e-01 +1.4760513731405260e-03
1.9000000000000006e+00 +4.6459182775867145e+00 +0.0000000000000000e+00 +1.8999997855823927e+00 +1.1821667413031119e-02 -2.1669155633430409e-01 +1.4760114469100137e-03
2.0000000000000004e+00 +4.6458338255267879e+00 +0.0000000000000000e+00 +1.9999997499138189e+00 +1.1821637571413076e-02 -2.1669158790059134e-01 +1.4759726107139632e-03
2.1000000000000005e+00 +4.6457450425846467e+00 +0.0000000000000000e+00 +2.0999997104939419e+00 +1.1821604780327094e-02 -2.1669161657450148e-01 +1.4759350286611351e-03
2.2000000000000006e+00 +4.6456519287598832e+00 +0.0000000000000000e+00 +2.1999996671351956e+00 +1.1821569279671495e-02 -2.1669164246878111e-01 +1.4758987518321892e-03
2.3000000000000007e+00 +4.6455544840521537e+00 +0.0000000000000000e+00 +2.2999996196500136e+00 +1.1821531387369615e-02 -2.1669166577027643e-01 +1.4758638030495843e-03
2.4000000000000008e+00 +4.6454527084611756e+00 +0.0000000000000000e+00 +2.3999995678508306e+00 +1.1821491421335612e-02 -2.1669168666580993e-01 +1.4758302051358265e-03
2.5000000000000009e+00 +4.6453466019867218e+00 +0.0000000000000000e+00 +2.4999995115500799e+00 +1.1821449699475859e-02 -2.1669170534217827e-01 +1.4757979809117841e-03
2.6000000000000010e+00 +4.6452361646286180e+00 +0.0000000000000000e+00 +2.5999994505601958e+00 +1.1821406539690386e-02 -2.1669172198615014e-01 +1.4757671531949984e-03
2.7000000000000011e+00 +4.6451213963867382e+00 +0.0000000000000000e+00 +2.6999993846936121e+00 +1.1821362259874303e-02 -2.1669173678446368e-01 +1.4757377447979982e-03
2.8000000000000012e+00 +4.6450022972610014e+00 +0.0000000000000000e+00 +2.7999993137627630e+00 +1.1821317177919160e-02 -2.1669174992382401e-01 +1.4757097785266079e-03
2.9000000000000012e+00 +4.6448788672513679e+00 +0.0000000000000000e+00 +2.8999992375800825e+00 +1.1821271611714437e-02 -2.1669176159090126e-01 +1.4756832771782688e-03
3.0000000000000013e+00 +4.6447511063578357e+00 +0.0000000000000000e+00 +2.9999991559580041e+00 +1.1821225879148876e-02 -2.1669177197232783e-01 +1.4756582635403438e-03
3.1000000000000014e+00 +4.6446190145804369e+00 +0.0000000000000000e+00 +3.0999990687089625e+00 +1.1821180298111952e-02 -2.1669178125469632e-01 +1.4756347603884351e-03
3.2000000000000015e+00 +4.6444825919192336e+00 +0.0000000000000000e+00 +3.1999989756453915e+00 +1.1821135186495246e-02 -2.1669178962455701e-01 +1.4756127904846988e-03
3.3000000000000016e+00 +4.6443418383743138e+00 +0.0000000000000000e+00 +3.2999988765797252e+00 +1.1821090862193842e-02 -2.1669179726841575e-01 +1.4755923765761535e-03
3.4000000000000017e+00 +4.6441967539457885e+00 +0.0000000000000000e+00 +3.3999987713243978e+00 +1.1821047643107737e-02 -2.1669180437273114e-01 +1.4755735413929990e-03
3.5000000000000018e+00 +4.6440473386337873e+00 +0.0000000000000000e+00 +3.4999986596918431e+00 +1.1821005847143226e-02 -2.1669181112391281e-01 +1.4755563076469297e-03
3.6000000000000019e+00 +4.6438935924384559e+00 +0.0000000000000000e+00 +3.5999985414944953e+00 +1.1820965792214319e-02 -2.1669181770831858e-01 +1.4755406980294500e-03
3.7000000000000020e+00 +4.6437355153599507e+00 +0.0000000000000000e+00 +3.6999984165447883e+00 +1.1820927796244088e-02 -2.1669182431225234e-01 +1.4755267352101864e-03
3.8000000000000020e+00 +4.6435731073984350e+00 +0.0000000000000000e+00 +3.7999982846551563e+00 +1.1820892177166094e-02 -2.1669183112196175e-01 +1.4755144418352106e-03
3.9000000000000021e+00 +4.6434063685540776e+00 +0.0000000000000000e+00 +3.8999981456380333e+00 +1.1820859252925718e-02 -2.1669183832363564e-01 +1.4755038405253463e-03
4.0000000000000018e+00 +4.6432352988270473e+00 +0.0000000000000000e+00 +3.9999979993058532e+00 +1.1820829341481594e-02 -2.1669184610340195e-01 +1.4754949538744976e-03
4.1000000000000014e+00 +4.6430598982175084e+00 +0.0000000000000000e+00 +4.0999978454710506e+00 +1.1820802685948446e-02 -2.1669185459447393e-01 +1.4754877611585049e-03
4.2000000000000011e+00 +4.6428801667256208e+00 +0.0000000000000000e+00 +4.1999976839460587e+00 +1.1820779230012780e-02 -2.1669186371863000e-01 +1.4754820684579734e-03
4.3000000000000007e+00 +4.6426961043515398e+00 +0.0000000000000000e+00 +4.2999975145433122e+00 +1.1820758842532766e-02 -2.1669187334486026e-01 +1.4754776385360658e-03
4.4000000000000004e+00 +4.6425077110954183e+00 +0.0000000000000000e+00 +4.3999973370752450e+00 +1.1820741392410371e-02 -2.1669188334224207e-01 +1.4754742341328505e-03
4.5000000000000000e+00 +4.6423149869574099e+00 +0.0000000000000000e+00 +4.4999971513542905e+00 +1.1820726748594091e-02 -2.1669189357994673e-01 +1.4754716179642188e-03
4.5999999999999996e+00 +4.6421179319376717e+00 +0.0000000000000000e+00 +4.5999969571928823e+00 +1.1820714780081757e-02 -2.1669190392724555e-01 +1.4754695527208041e-03
4.6999999999999993e+00 +4.6419165460363665e+00 +0.0000000000000000e+00 +4.6999967544034549e+00 +1.1820705355923288e-02 -2.1669191425351636e-01 +1.4754678010669088e-03
4.7999999999999989e+00 +4.6417108292536664e+00 +0.0000000000000000e+00 +4.7999965427984419e+00 +1.1820698345223455e-02 -2.1669192442824986e-01 +1.4754661256394330e-03
4.8999999999999986e+00 +4.6415007815897535e+00 +0.0000000000000000e+00 +4.8999963221902778e+00 +1.1820693617144646e-02 -2.1669193432105627e-01 +1.4754642890467996e-03
4.9999999999999982e+00 +4.6412864030448242e+00 +0.0000000000000000e+00 +4.9999960923913962e+00 +1.1820691040909648e-02 -2.1669194380167095e-01 +1.4754620538678920e-03
5.0999999999999979e+00 +4.6410676936190924e+00 +0.0000000000000000e+00 +5.0999958532142307e+00 +1.1820690485804407e-02 -2.1669195273996197e-01 +1.4754591826509908e-03
5.1999999999999975e+00 +4.6408446533127892e+00 +0.0000000000000000e+00 +5.1999956044712148e+00 +1.1820691821180750e-02 -2.1669196100593519e-01 +1.4754554379127110e-03
5.2999999999999972e+00 +4.6406172821261675e+00 +0.0000000000000000e+00 +5.2999953459747831e+00 +1.1820694916459210e-02 -2.1669196846974134e-01 +1.4754505821369499e-03
5.3999999999999968e+00 +4.6403855800595055e+00 +0.0000000000000000e+00 +5.3999950775373691e+00 +1.1820699641131735e-02 -2.1669197500168255e-01 +1.4754443777738298e-03
5.4999999999999964e+00 +4.6401495471131069e+00 +0.0000000000000000e+00 +5.4999947989714073e+00 +1.1820705864764466e-02 -2.1669198047221808e-01 +1.4754365872386554e-03
5.5999999999999961e+00 +4.6399091832873056e+00 +0.0000000000000000e+00 +5.5999945100893314e+00 +1.1820713457000483e-02 -2.1669198475197093e-01 +1.4754269729108610e-03
5.6999999999999957e+00 +4.6396644885824676e+00 +0.0000000000000000e+00 +5.6999942107035748e+00 +1.1820722287562566e-02 -2.1669198771173462e-01 +1.4754152971329776e-03
5.7999999999999954e+00 +4.6394154629989925e+00 +0.0000000000000000e+00 +5.7999939006265731e+00 +1.1820732226255945e-02 -2.1669198922247879e-01 +1.4754013222095914e-03
5.8999999999999950e+00 +4.6391621065373174e+00 +0.0000000000000000e+00 +5.8999935796707597e+00 +1.1820743142971038e-02 -2.1669198915535601e-01 +1.4753848104063108e-03
5.9999999999999947e+00 +4.6389044191979192e+00 +0.0000000000000000e+00 +5.9999932476485691e+00 +1.1820754907686214e-02 -2.1669198738170781e-01 +1.4753655239487422e-03
6.0999999999999943e+00 +4.6386424009813165e+00 +0.0000000000000000e+00 +6.0999929043724359e+00 +1.1820767380962027e-02 -2.1669198380978827e-01 +1.4753433087849796e-03
6.1999999999999940e+00 +4.6383760518880726e+00 +0.0000000000000000e+00 +6.1999925496547945e+00 +1.1820780385358514e-02 -2.1669197849483890e-01 +1.4753183459713859e-03
6.2999999999999936e+00 +4.6381053719187921e+00 +0.0000000000000000e+00 +6.2999921833080794e+00 +1.1820793733873167e-02 -2.1669197152872760e-01 +1.4752909003982796e-03
6.3999999999999932e+00 +4.6378303610741227e+00 +0.0000000000000000e+00 +6.3999918051447260e+00 +1.1820807239437065e-02 -2.1669196300318247e-01 +1.4752612370017547e-03
6.4999999999999929e+00 +4.6375510193547509e+00 +0.0000000000000000e+00 +6.4999914149771687e+00 +1.1820820714911339e-02 -2.1669195300978519e-01 +1.4752296207660369e-03
6.5999999999999925e+00 +4.6372673467613996e+00 +0.0000000000000000e+00 +6.5999910126178429e+00 +1.1820833973083684e-02 -2.1669194163996303e-01 +1.4751963167258290e-03
6.6999999999999922e+00 +4.6369793432948274e+00 +0.0000000000000000e+00 +6.6999905978791841e+00 +1.1820846826664859e-02 -2.1669192898498232e-01 +1.4751615899686510e-03
6.7999999999999918e+00 +4.6366870089558283e+00 +0.0000000000000000e+00 +6.7999901705736274e+00 +1.1820859088285198e-02 -2.1669191513594108e-01 +1.4751257056371792e-03
6.8999999999999915e+00 +4.6363903437452265e+00 +0.0000000000000000e+00 +6.8999897305136084e+00 +1.1820870570491134e-02 -2.1669190018376205e-01 +1.4750889289315806e-03
6.9999999999999911e+00 +4.6360893476638774e+00 +0.0000000000000000e+00 +6.9999892775115624e+00 +1.1820881085741732e-02 -2.1669188421918545e-01 +1.4750515251118345e-03
7.0999999999999908e+00 +4.6357840207126646e+00 +0.0000000000000000e+00 +7.0999888113799248e+00 +1.1820890446405229e-02 -2.1669186733276166e-01 +1.4750137595000586e-03
7.1999999999999904e+00 +4.6354743628924977e+00 +0.0000000000000000e+00 +7.1999883319311326e+00 +1.1820898464755586e-02 -2.1669184961484467e-01 +1.4749758974828254e-03
7.2999999999999901e+00 +4.6351603742043119e+00 +0.0000000000000000e+00 +7.2999878389776205e+00 +1.1820904952969048e-02 -2.1669183115558477e-01 +1.4749382045134707e-03
7.3999999999999897e+00 +4.6348420546490647e+00 +0.0000000000000000e+00 +7.3999873323318255e+00 +1.1820909723120714e-02 -2.1669181204492127e-01 +1.4749009461144001e-03
7.4999999999999893e+00 +4.6345194042277358e+00 +0.0000000000000000e+00 +7.4999868118061839e+00 +1.1820912587181119e-02 -2.1669179237257552e-01 +1.4748643878793868e-03
7.5999999999999890e+00 +4.6341924229413225e+00 +0.0000000000000000e+00 +7.5999862772131310e+00 +1.1820913357012828e-02 -2.1669177222804409e-01 +1.4748287954758678e-03
7.6999999999999886e+00 +4.6338611107908410e+00 +0.0000000000000000e+00 +7.6999857283651041e+00 +1.1820911844367028e-02 -2.1669175170059177e-01 +1.4747944346472266e-03
7.7999999999999883e+00 +4.6335254677773223e+00 +0.0000000000000000e+00 +7.7999851650745393e+00 +1.1820907860880170e-02 -2.1669173087924407e-01 +1.4747615712150774e-03
7.8999999999999879e+00 +4.6331854939018120e+00 +0.0000000000000000e+00 +7.8999845871538739e+00 +1.1820901218070549e-02 -2.1669170985278061e-01 +1.4747304710815360e-03
7.9999999999999876e+00 +4.6328411891653687e+00 +0.0000000000000000e+00 +7.9999839944155440e+00 +1.1820891727334991e-02 -2.1669168870972810e-01 +1.4747014002314904e-03
8.0999999999999872e+00 +4.6324925535690600e+00 +0.0000000000000000e+00 +8.0999833866719868e+00 +1.1820879280922516e-02 -2.1669166755898675e-01 +1.4746745679240102e-03
8.1999999999999869e+00 +4.6321395871139623e+00 +0.0000000000000000e+00 +8.1999827637356386e+00 +1.1820864095052530e-02 -2.1669164659188844e-01 +1.4746499561280799e-03
8.2999999999999865e+00 +4.6317822898011558e+00 +0.0000000000000000e+00 +8.2999821254189374e+00 +1.1820846466964963e-02 -2.1669162602049483e-01 +1.4746274899675323e-03
8.3999999999999861e+00 +4.6314206616317222e+00 +0.0000000000000000e+00 +8.3999814715343195e+00 +1.1820826693873566e-02 -2.1669160605697962e-01 +1.4746070945804615e-03
8.4999999999999858e+00 +4.6310547026067379e+00 +0.0000000000000000e+00 +8.4999808018942229e+00 +1.1820805072965504e-02 -2.1669158691363211e-01 +1.4745886951193061e-03
8.5999999999999854e+00 +4.6306844127272724e+00 +0.0000000000000000e+00 +8.5999801163110838e+00 +1.1820781901401008e-02 -2.1669156880286194e-01 +1.4745722167509383e-03
8.6999999999999851e+00 +4.6303097919943808e+00 +0.0000000000000000e+00 +8.6999794145973386e+00 +1.1820757476312956e-02 -2.1669155193720313e-01 +1.4745575846567504e-03
8.7999999999999847e+00 +4.6299308404091031e+00 +0.0000000000000000e+00 +8.7999786965654252e+00 +1.1820732094806415e-02 -2.1669153652931802e-01 +1.4745447240327447e-03
8.8999999999999844e+00 +4.6295475579724581e+00 +0.0000000000000000e+00 +8.8999779620277817e+00 +1.1820706053958289e-02 -2.1669152279200171e-01 +1.4745335600896280e-03
8.9999999999999840e+00 +4.6291599446854379e+00 +0.0000000000000000e+00 +8.9999772107968425e+00 +1.1820679650816849e-02 -2.1669151093818584e-01 +1.4745240180529058e-03
9.0999999999999837e+00 +4.6287680005490071e+00 +0.0000000000000000e+00 +9.0999764426850476e+00 +1.1820653182401305e-02 -2.1669150118094319e-01 +1.4745160231629782e-03
9.1999999999999833e+00 +4.6283717255640946e+00 +0.0000000000000000e+00 +9.1999756575048313e+00 +1.1820626945701351e-02 -2.1669149373349128e-01 +1.4745095006752421e-03
9.2999999999999829e+00 +4.6279711197315923e+00 +0.0000000000000000e+00 +9.2999748550686316e+00 +1.1820601237676746e-02 -2.1669148880919700e-01 +1.4745043758601941e-03
9.3999999999999826e+00 +4.6275661830523500e+00 +0.0000000000000000e+00 +9.3999740351888850e+00 +1.1820576355256797e-02 -2.1669148662157992e-01 +1.4745005740035297e-03
9.4999999999999822e+00 +4.6271569155271708e+00 +0.0000000000000000e+00 +9.4999731976780275e+00 +1.1820552595339940e-02 -2.1669148738431701e-01 +1.4744980204062588e-03
9.5999999999999819e+00 +4.6267433171568060e+00 +0.0000000000000000e+00 +9.5999723423484937e+00 +1.1820530254793234e-02 -2.1669149131124643e-01 +1.4744966403848088e-03
9.6999999999999815e+00 +4.6263253879419528e+00 +0.0000000000000000e+00 +9.6999714690127217e+00 +1.1820509630451852e-02 -2.1669149861637124e-01 +1.4744963592711405e-03
9.7999999999999812e+00 +4.6259031278832490e+00 +0.0000000000000000e+00 +9.7999705774831458e+00 +1.1820491019118629e-02 -2.1669150951386412e-01 +1.4744971024128622e-03
9.8999999999999808e+00 +4.6254765369812683e+00 +0.0000000000000000e+00 +9.8999696675722024e+00 +1.1820474717563508e-02 -2.1669152421807059e-01 +1.4744987951733504e-03
9.9999999999999805e+00 +4.6250456152365169e+00 +0.0000000000000000e+00 +9.9999687390923260e+00 +1.1820461022523033e-02 -2.1669154294351306e-01 +1.4745013629318658e-03
1.0099999999999980e+01 +4.6246103626494284e+00 +0.0000000000000000e+00 +1.0099967791855951e+01 +1.1820450162863896e-02 -2.1669156579441728e-01 +1.4745047165471909e-03
1.0199999999999980e+01 +4.6241707792203632e+00 +0.0000000000000000e+00 +1.0199966825675512e+01 +1.1820442095880165e-02 -2.1669159243278815e-01 +1.4745087086365557e-03
1.0299999999999979e+01 +4.6237268649496137e+00 +0.0000000000000000e+00 +1.0299965840363443e+01 +1.1820436711035331e-02 -2.1669162240991616e-01 +1.4745131771105229e-03
1.0399999999999979e+01 +4.6232786198374143e+00 +0.0000000000000000e+00 +1.0399964835732179e+01 +1.1820433897944493e-02 -2.1669165527704226e-01 +1.4745179597186126e-03
1.0499999999999979e+01 +4.6228260438839497e+00 +0.0000000000000000e+00 +1.0499963811594151e+01 +1.1820433546378330e-02 -2.1669169058535628e-01 +1.4745228940452543e-03
1.0599999999999978e+01 +4.6223691370893638e+00 +0.0000000000000000e+00 +1.0599962767761793e+01 +1.1820435546267145e-02 -2.1669172788599636e-01 +1.4745278175057430e-03
1.0699999999999978e+01 +4.6219078994537695e+00 +0.0000000000000000e+00 +1.0699961704047539e+01 +1.1820439787704870e-02 -2.1669176673004714e-01 +1.4745325673422027e-03
1.0799999999999978e+01 +4.6214423309772554e+00 +0.0000000000000000e+00 +1.0799960620263819e+01 +1.1820446160953053e-02 -2.1669180666853904e-01 +1.4745369806195500e-03
1.0899999999999977e+01 +4.6209724316598981e+00 +0.0000000000000000e+00 +1.0899959516223067e+01 +1.1820454556444857e-02 -2.1669184725244683e-01 +1.4745408942214760e-03
1.0999999999999977e+01 +4.6204982015017677e+00 +0.0000000000000000e+00 +1.0999958391737716e+01 +1.1820464864789076e-02 -2.1669188803268882e-01 +1.4745441448464180e-03
1.1099999999999977e+01 +4.6200196405029397e+00 +0.0000000000000000e+00 +1.1099957246620196e+01 +1.1820476976774115e-02 -2.1669192856012529e-01 +1.4745465690035489e-03
1.1199999999999976e+01 +4.6195367486635028e+00 +0.0000000000000000e+00 +1.1199956080682941e+01 +1.1820490783371973e-02 -2.1669196838555788e-01 +1.4745480030087699e-03
1.1299999999999976e+01 +4.6190495259835673e+00 +0.0000000000000000e+00 +1.1299954893738382e+01 +1.1820506175742228e-02 -2.1669200705972819e-01 +1.4745482829807066e-03
1.1399999999999975e+01 +4.6185579724632753e+00 +0.0000000000000000e+00 +1.1399953685598952e+01 +1.1820523045236031e-02 -2.1669204413331708e-01 +1.4745472448367163e-03
1.1499999999999975e+01 +4.6180620881028078e+00 +0.0000000000000000e+00 +1.1499952456077082e+01 +1.1820541283400073e-02 -2.1669207915694322e-01 +1.4745447242888951e-03
1.1599999999999975e+01 +4.6175618729023959e+00 +0.0000000000000000e+00 +1.1599951204985206e+01 +1.1820560781980556e-02 -2.1669211168116245e-01 +1.4745405568400993e-03
1.1699999999999974e+01 +4.6170573268623292e+00 +0.0000000000000000e+00 +1.1699949932135757e+01 +1.1820581432927163e-02 -2.1669214125646663e-01 +1.4745345777799678e-03
1.1799999999999974e+01 +4.6165484499829628e+00 +0.0000000000000000e+00 +1.1799948637341167e+01 +1.1820603128397025e-02 -2.1669216743328279e-01 +1.4745266221809527e-03
