# multipoles
# s[mm] polynom_b[n=0][T/m^n] polynom_b[n=1][T/m^n] polynom_b[n=2][T/m^n] polynom_b[n=3][T/m^n] polynom_b[n=4][T/m^n] polynom_b[n=5][T/m^n] polynom_b[n=6][T/m^n] 
+0.0000000000000000e+00 -4.2826350339483378e-02 -9.1748256010838115e-05 +1.1956834430397694e-02 +4.0381462282150018e+00 -6.6053441161113085e+01 -1.6935576436104024e+04 +9.5764790149765043e+05 
+1.0000000000000001e-01 -4.2826358813401286e-02 -8.9521412306051211e-05 +1.1788306628174107e-02 +3.9951222982695764e+00 -5.6939685987360861e+01 -1.6794286078894002e+04 +9.0333101899838250e+05 
+2.0000000000000001e-01 -4.2826369501164252e-02 -8.6477493146292023e-05 +1.1577478689437931e-02 +3.9302720720712667e+00 -4.5932255568771545e+01 -1.6527405656163981e+04 +8.3867640213303396e+05 
+3.0000000000000004e-01 -4.2826382200942897e-02 -8.2700683413961724e-05 +1.1330060156959372e-02 +3.8458733013292354e+00 -3.3266011155233038e+01 -1.6147569364678933e+04 +7.6497280826069170e+05 
+4.0000000000000002e-01 -4.2826396710958031e-02 -7.8275169030034400e-05 +1.1051766512262773e-02 +3.7442036243113668e+00 -1.9175923024755310e+01 -1.5667410347271751e+04 +6.8350948624502798e+05 
+5.0000000000000000e-01 -4.2826412829473498e-02 -7.3285136586818570e-05 +1.0748318397127057e-02 +3.6275405922508956e+00 -3.8970578396107833e+00 -1.5099560957750546e+04 +5.9557612601486407e+05 
+5.9999999999999998e-01 -4.2826430354782369e-02 -6.7814772961704339e-05 +1.0425440027184074e-02 +3.4981616945113418e+00 +1.2335448933061324e+01 -1.4456653016149923e+04 +5.0246273863899085e+05 
+6.9999999999999996e-01 -4.2826449085200044e-02 -6.1948265078526428e-05 +1.0088858481209766e-02 +3.3583443887438200e+00 +2.9286404188440162e+01 -1.3751318094755135e+04 +4.0545961333741021e+05 
+7.9999999999999993e-01 -4.2826468819049598e-02 -5.5769799596794166e-05 +9.7443019747773633e-03 +3.2103661284247842e+00 +4.6720587548099068e+01 -1.2996187787969076e+04 +3.0585718412529759e+05 
+8.9999999999999991e-01 -4.2826489354653476e-02 -4.9363562259882033e-05 +9.3974989771993429e-03 +3.0565043811789825e+00 +6.4402765839200953e+01 -1.2203893930281256e+04 +2.0494597101997864e+05 
+9.9999999999999989e-01 -4.2826510490323745e-02 -4.2813737790806962e-05 +9.0541771329403359e-03 +2.8990366621230668e+00 +8.2097710998698588e+01 -1.1387068899093774e+04 +1.0401650600072504e+05 
+1.0999999999999999e+00 -4.2826532024350071e-02 -3.6204509448665952e-05 +8.7200618781912622e-03 +2.7402405574361310e+00 +9.9570224121032879e+01 -1.0558345861253447e+04 +4.3592288620480085e+03 
+1.2000000000000000e+00 -4.2826553754989172e-02 -2.9620058757633359e-05 +8.4008752565934743e-03 +2.5823937542242321e+00 +1.1658515552911432e+02 -9.7303590590437871e+03 -9.2735597537827634e+04 
+1.3000000000000000e+00 -4.2826575480455834e-02 -2.3144564985923847e-05 +8.1023349538567740e-03 +2.4277740616499619e+00 +1.3290742062600557e+02 -8.9157440419683517e+03 -1.8597795200779306e+05 
+1.4000000000000001e+00 -4.2826596998909811e-02 -1.6862204885499624e-05 +7.8301527614415920e-03 +2.2786594399174369e+00 +1.4830202683943560e+02 -8.1271379450416061e+03 -2.7407817273734073e+05 
+1.5000000000000002e+00 -4.2826618108447692e-02 -1.0857152306121772e-05 +7.5900337280143835e-03 +2.1373280263663599e+00 +1.6253408718770598e+02 -7.3771797518742960e+03 -3.5574701101491979e+05 
+1.6000000000000003e+00 -4.2826638607091412e-02 -5.2135779420100951e-06 +7.3876748342561575e-03 +2.0060581645436741e+00 +1.7536884318592394e+02 -6.6785105726005177e+03 -4.2969572987340222e+05 
+1.7000000000000004e+00 -4.2826658292777507e-02 -1.5648655251205361e-08 +7.2287637800359898e-03 +1.8871284213359156e+00 +1.8657168548507943e+02 -6.0437738546180290e+03 -4.9463619151586399e+05 
+1.8000000000000005e+00 -4.2826676963346702e-02 +4.6524724439929158e-06 +7.1189778490137788e-03 +1.7828176263151252e+00 +1.9590817292373356e+02 -5.4856157210083666e+03 -5.4928093715302425e+05 
+1.9000000000000006e+00 -4.2826694416533098e-02 +8.7066267783713640e-06 +7.0639826590746602e-03 +1.6954048856140267e+00 +2.0314405400888279e+02 -5.0166851617081120e+03 -5.9234327881774330e+05 
+2.0000000000000004e+00 -4.2826710449947604e-02 +1.2062657059532906e-05 +7.0694295143501982e-03 +1.6271696485218881e+00 +2.0804531439322665e+02 -4.6496337915497461e+03 -6.2253745749369881e+05 
+2.1000000000000005e+00 -4.2826724901163064e-02 +1.4650220023168950e-05 +7.1394071796926986e-03 +1.5799790874066919e+00 +2.1043525193772572e+02 -4.3947213446463238e+03 -6.3888328439159971e+05 
+2.2000000000000006e+00 -4.2826737785861213e-02 +1.6482497630290926e-05 +7.2707125172158426e-03 +1.5532131191761116e+00 +2.1042244815120083e+02 -4.2484138084021770e+03 -6.4197719533313648e+05 
+2.3000000000000007e+00 -4.2826749168256489e-02 +1.7602431096853268e-05 +7.4575998299826933e-03 +1.5453480594535920e+00 +2.0821403052057354e+02 -4.2022467208779362e+03 -6.3296619236475392e+05 
+2.4000000000000008e+00 -4.2826759112539484e-02 +1.8052994723608180e-05 +7.6943167871848309e-03 +1.5548588640153937e+00 +2.0401733864713046e+02 -4.2477480958642946e+03 -6.1299843762814777e+05 
+2.5000000000000009e+00 -4.2826767682900724e-02 +1.7877161404871251e-05 +7.9751120940570394e-03 +1.5802204583706629e+00 +1.9803969904928334e+02 -4.3764454751143048e+03 -5.8322207203334302e+05 
+2.6000000000000010e+00 -4.2826774943537517e-02 +1.7117902274761692e-05 +8.2942363448935460e-03 +1.6199077209127601e+00 +1.9048841156295245e+02 -4.5798657378830549e+03 -5.4478516222900571e+05 
+2.7000000000000011e+00 -4.2826780958655698e-02 +1.5818186379603764e-05 +8.6459422392571126e-03 +1.6723954655604409e+00 +1.8157074772327695e+02 -4.8495349083322471e+03 -4.9883570371383504e+05 
+2.8000000000000012e+00 -4.2826785792478630e-02 +1.4020980025574441e-05 +9.0244857360824680e-03 +1.7361584331238391e+00 +1.7149393111979930e+02 -5.1769780105752616e+03 -4.4652153834209708e+05 
+2.9000000000000012e+00 -4.2826789509248737e-02 +1.1769246825568590e-05 +9.4241262235242543e-03 +1.8096712628408071e+00 +1.6046513688403476e+02 -5.5537188116316265e+03 -3.8899036336339999e+05 
+3.0000000000000013e+00 -4.2826792173234006e-02 +9.1059469593322632e-06 +9.8391273486831254e-03 +1.8914084870177397e+00 +1.4869147822516609e+02 -5.9712796972668393e+03 -3.2738967805688374e+05 
+3.1000000000000014e+00 -4.2826793848734189e-02 +6.0740370157272073e-06 +1.0263757794220837e-02 +1.9798445079819418e+00 +1.3637999426598142e+02 -6.4211814445916525e+03 -2.6286673743551999e+05 
+3.2000000000000015e+00 -4.2826794600082554e-02 +2.7164694109945666e-06 +1.0692291519311158e-02 +2.0734535880027534e+00 +1.2373764772982079e+02 -6.8949430706530011e+03 -1.9656855151097066e+05 
+3.3000000000000016e+00 -4.2826794491654531e-02 -9.2380771164439743e-07 +1.1119008810832573e-02 +2.1707098252039119e+00 +1.1097130773731909e+02 -7.3840816001591775e+03 -1.2964181565766335e+05 
+3.4000000000000017e+00 -4.2826793587869671e-02 -4.8038512475312927e-06 +1.1538196573894259e-02 +2.2700871485015450e+00 +9.8287746404310823e+01 -7.8801119422753754e+03 -6.3232904290890852e+04 
+3.5000000000000018e+00 -4.2826791953199356e-02 -8.8807231189857936e-06 +1.1944149271793270e-02 +2.3700592900101185e+00 +8.5893623739298420e+01 -8.3745466377435550e+03 +1.5121888646441537e+03 
+3.6000000000000019e+00 -4.2826789652169572e-02 -1.3111490991491539e-05 +1.2331169304945723e-02 +2.4690997787809343e+00 +7.3995482654870045e+01 -8.8588957289700666e+03 +6.3447864253195774e+04 
+3.7000000000000020e+00 -4.2826786749366255e-02 -1.7453228462929199e-05 +1.2693567658817184e-02 +2.5656819192187204e+00 +6.2799739285751350e+01 -9.3246665419510555e+03 +1.2142895103787334e+05 
+3.8000000000000020e+00 -4.2826783309442437e-02 -2.1863015631445059e-05 +1.3025664825911384e-02 +2.6582787801300292e+00 +5.2512667813699295e+01 -9.7633635288111709e+03 +1.7431076836490637e+05 
+3.9000000000000021e+00 -4.2826779397120672e-02 -2.6297939268497675e-05 +1.3321791118498415e-02 +2.7453631730707353e+00 +4.3340397006898812e+01 -1.0166488049933609e+04 +2.2094913078506166e+05 
+4.0000000000000018e+00 -4.2826775077174854e-02 -3.0715089140824211e-05 +1.3576286617640735e-02 +2.8254079007088211e+00 +3.5488955789577311e+01 -1.0525539041037164e+04 +2.6020011479499948e+05 
+4.1000000000000014e+00 -4.2826770406627579e-02 -3.5066995546916666e-05 +1.3784588137442374e-02 +2.8968933349291470e+00 +2.9136364201271693e+01 -1.0832233845319150e+04 +2.9106608347664407e+05 
+4.2000000000000011e+00 -4.2826765411969579e-02 -3.9312006978013347e-05 +1.3945997831520158e-02 +2.9591842965205992e+00 +2.4300641242385414e+01 -1.1084002020748692e+04 +3.1347779638493562e+05 
+4.3000000000000007e+00 -4.2826760111675820e-02 -4.3419703907854821e-05 +1.4061283800471601e-02 +3.0122940021283200e+00 +2.0921094514029079e+01 -1.1282113232144982e+04 +3.2783619393318007e+05 
+4.4000000000000004e+00 -4.2826754524384614e-02 -4.7359853530695739e-05 +1.4131252519452827e-02 +3.0562445959550932e+00 +1.8935676684241567e+01 -1.1427884530632065e+04 +3.3454951186998741e+05 
+4.5000000000000000e+00 -4.2826748668791229e-02 -5.1102214053024362e-05 +1.4156712614245223e-02 +3.0910580348171659e+00 +1.8282314257783863e+01 -1.1522632262004989e+04 +3.3402612172593316e+05 
+4.5999999999999996e+00 -4.2826742563656657e-02 -5.4616533830257234e-05 +1.4138475664771624e-02 +3.1167560734942255e+00 +1.8898892578101439e+01 -1.1567672027621469e+04 +3.2667460513741890e+05 
+4.6999999999999993e+00 -4.2826736227803704e-02 -5.7872551046976723e-05 +1.4077355378135108e-02 +3.1333602643119796e+00 +2.0723271679011361e+01 -1.1564318722563519e+04 +3.1290368288470985e+05 
+4.7999999999999989e+00 -4.2826729680127094e-02 -6.0839993119450539e-05 +1.3974168523793873e-02 +3.1408919491501570e+00 +2.3693269281436052e+01 -1.1513886531825687e+04 +2.9312229722390702e+05 
+4.8999999999999986e+00 -4.2826722939589154e-02 -6.3488575888093763e-05 +1.3829734131366617e-02 +3.1393722456346320e+00 +2.7746675538573299e+01 -1.1417688893434857e+04 +2.6773954784643592e+05 
+4.9999999999999982e+00 -4.2826716025228806e-02 -6.5788003411551479e-05 +1.3644874201375176e-02 +3.1288220499998509e+00 +3.2821240669387315e+01 -1.1277038555864934e+04 +2.3716475150952101e+05 
+5.0999999999999979e+00 -4.2826708956159351e-02 -6.7707966932717712e-05 +1.3420413206397291e-02 +3.1092620170812619e+00 +3.8854684044318354e+01 -1.1093247506849140e+04 +2.0180740421133704e+05 
+5.1999999999999975e+00 -4.2826701751574846e-02 -6.9218144644276930e-05 +1.3157178503938648e-02 +3.0807125622368994e+00 +4.5784686993336990e+01 -1.0867627024640447e+04 +1.6207721781710244e+05 
+5.2999999999999972e+00 -4.2826694430750892e-02 -7.0288201078680008e-05 +1.2856000125453819e-02 +3.0431938531768692e+00 +5.3548897149233795e+01 -1.0601487674138934e+04 +1.1838410264543095e+05 
+5.3999999999999968e+00 -4.2826687013049064e-02 -7.0887786298677388e-05 +1.2517711050010951e-02 +2.9967257958388220e+00 +6.2084923228530322e+01 -1.0296139267615798e+04 +7.1138196497596567e+04 
+5.4999999999999964e+00 -4.2826679517917444e-02 -7.0986535567412292e-05 +1.2143146898274507e-02 +2.9413280339458647e+00 +7.1330341455642653e+01 -9.9528909038128950e+03 +2.0749836841673237e+04 
+5.5999999999999961e+00 -4.2826671964895612e-02 -7.0554068560711052e-05 +1.1733146259249970e-02 +2.8770199354244967e+00 +8.1222689609093123e+01 -9.5730509323358383e+03 -3.2370407567064252e+04 
+5.6999999999999957e+00 -4.2826664373616090e-02 -6.9559989055322440e-05 +1.1288550554159981e-02 +2.8038205930269178e+00 +9.1699469788309671e+01 -9.1579270002743997e+03 -8.7811746008657283e+04 
+5.7999999999999954e+00 -4.2826656763807897e-02 -6.7973884007764879e-05 +1.0810204153537084e-02 +2.7217488061711070e+00 +1.0269814657557961e+02 -8.7088259878949120e+03 -1.4516315395327948e+05 
+5.8999999999999950e+00 -4.2826649155298720e-02 -6.5765323229850103e-05 +1.0298954331964512e-02 +2.6308230812709135e+00 +1.1415614823919780e+02 -8.2270540543614898e+03 -2.0401337559043907e+05 
+5.9999999999999947e+00 -4.2826641568209096e-02 -6.2903846103389883e-05 +9.7556703218715443e-03 +2.5310599235182312e+00 +1.2601032470624348e+02 -7.7139113125941485e+03 -2.6394842235295108e+05 
+6.0999999999999943e+00 -4.2826634030345381e-02 -5.9375411814488496e-05 +9.1808260335102324e-03 +2.4227606578438032e+00 +1.3820393793364153e+02 -7.1720334127893002e+03 -3.2458616971315240e+05 
+6.1999999999999940e+00 -4.2826626555515904e-02 -5.5226835000073543e-05 +8.5766168084196858e-03 +2.3071101921687092e+00 +1.5067427968664074e+02 -6.6074598175754045e+03 -3.8560301125076151e+05 
+6.2999999999999936e+00 -4.2826619147863614e-02 -5.0520576344756904e-05 +7.9471746332317045e-03 +2.1853141358022352e+00 +1.6335074146361353e+02 -6.0256211730845062e+03 -4.4671983179146738e+05 
+6.3999999999999932e+00 -4.2826611811394376e-02 -4.5318936331103257e-05 +7.2966142907322168e-03 +2.0585648905848863e+00 +1.7616418215429243e+02 -5.4318651361010061e+03 -5.0766701009400527e+05 
+6.4999999999999929e+00 -4.2826604549965910e-02 -3.9684231410541962e-05 +6.6290366376274782e-03 +1.9280554354803674e+00 +1.8904568460285239e+02 -4.8315429493019774e+03 -5.6817589734911139e+05 
+6.5999999999999925e+00 -4.2826597367284717e-02 -3.3678794881242897e-05 +5.9485285002963528e-03 +1.7949793547564352e+00 +2.0192655547660448e+02 -4.2300096058785020e+03 -6.2797881253752869e+05 
+6.6999999999999922e+00 -4.2826590266896745e-02 -2.7364977155263538e-05 +5.2591617846774932e-03 +1.6605308505531740e+00 +2.1473834029269278e+02 -3.6326239303294105e+03 -6.8680911006936897e+05 
+6.7999999999999918e+00 -4.2826583252178613e-02 -2.0805147056354051e-05 +4.5649926535580136e-03 +1.5259047836597095e+00 +2.2741283681391420e+02 -3.0447488171168970e+03 -7.4440123870154948e+05 
+6.8999999999999915e+00 -4.2826576326335561e-02 -1.4061692157696780e-05 +3.8700615345087794e-03 +1.3922966875176328e+00 +2.3988209317405386e+02 -2.4717513176603734e+03 -8.0049072972331988e+05 
+6.9999999999999911e+00 -4.2826569492391768e-02 -7.1970197420923653e-06 +3.1783921970227847e-03 +1.2609027997518281e+00 +2.5207842318802881e+02 -1.9190028273628748e+03 -8.5481426494668203e+05 
+7.0999999999999908e+00 -4.2826562753181828e-02 -2.7355741626990818e-07 +2.4939909412952923e-03 +1.1329200839708633e+00 +2.6393441987641370e+02 -1.3918792167097758e+03 -9.0710973722488992e+05 
+7.1999999999999904e+00 -4.2826556111347697e-02 +6.6462460930183783e-06 +1.8208465101228056e-03 +1.0095462567995679e+00 +2.7538295508163191e+02 -8.9576099323750657e+02 -9.5711624473424687e+05 
+7.2999999999999901e+00 -4.2826549569326543e-02 +1.3499920187641837e-05 +1.1629288316678493e-03 +8.9197981312808261e-01 +2.8635720122562827e+02 -4.3603345094856991e+02 -1.0045741896433083e+06 
+7.3999999999999897e+00 -4.2826543129351309e-02 +2.0224971758618392e-05 +5.2418937775240790e-04 +7.8142004899428252e-01 +2.9679062268986985e+02 -1.8086809224941074e+01 -1.0492252342330571e+06 
+7.4999999999999893e+00 -4.2826536793434254e-02 +2.6758884448787168e-05 -9.1440658065481317e-05 +6.7906708671553373e-01 +3.0661700833585218e+02 +3.5268363731826850e+02 -1.0908124504773156e+06 
+7.5999999999999890e+00 -4.2826530563369575e-02 +3.3039117642208332e-05 -6.8004969448311387e-04 +5.8612190771960548e-01 +3.1577045666806083e+02 +6.7087732522390115e+02 -1.1290802457784715e+06 
+7.6999999999999886e+00 -4.2826524440718439e-02 +3.9003106389380255e-05 -1.2377474175535546e-03 +5.0378635920558246e-01 +3.2418540545591219e+02 +9.3108837684697528e+02 -1.1637744995436263e+06 
+7.7999999999999883e+00 -4.2826518426807701e-02 +4.4588260010903352e-05 -1.7606646492915783e-03 +4.3326319785621142e-01 +3.3179662724037689e+02 +1.1279053445491991e+03 -1.1946425382757918e+06 
+7.8999999999999879e+00 -4.2826512522720031e-02 +4.9731961744062741e-05 -2.2449542967416729e-03 +3.7575610479790289e-01 +3.3853924510001565e+02 +1.2559111170980500e+03 -1.2214332055399618e+06 
+7.9999999999999876e+00 -4.2826506728568171e-02 +5.4371608388950863e-05 -2.6868789428790354e-03 +3.3246298071342167e-01 +3.4434971995883234e+02 +1.3097365432230470e+03 -1.2438991923755240e+06 
+8.0999999999999872e+00 -4.2826501018960267e-02 +5.8456905472498302e-05 -3.0846640807780357e-03 +3.0419126776852223e-01 +3.4918506141490309e+02 +1.2863164507528970e+03 -1.2618428344225760e+06 
+8.1999999999999869e+00 -4.2826495370637124e-02 +6.1991861108179035e-05 -3.4400740209546959e-03 +2.9035532564806349e-01 +3.5307548675103158e+02 +1.1898570890515930e+03 -1.2753945820398817e+06 
+8.2999999999999865e+00 -4.2826489776859898e-02 +6.5004757171362640e-05 -3.7570337867624181e-03 +2.8973163741309949e-01 +3.5611489807301695e+02 +1.0275785987176578e+03 -1.2849972915380606e+06 
+8.3999999999999861e+00 -4.2826484230639048e-02 +6.7524415055513192e-05 -4.0395819533393064e-03 +3.0107999810028319e-01 +3.5840029462732252e+02 +8.0674299769961976e+02 -1.2911061682451447e+06 
+8.4999999999999858e+00 -4.2826478725112874e-02 +6.9579671580009857e-05 -4.2917354710065121e-03 +3.2315941644228535e-01 +3.6002827121646732e+02 +5.3461778472404717e+02 -1.2941745887379730e+06 
+8.5999999999999854e+00 -4.2826473253555229e-02 +7.1199379791865160e-05 -4.5174885443754744e-03 +3.5472808129288985e-01 +3.6109499745168495e+02 +2.1847616128715026e+02 -1.2946540063264892e+06 
+8.6999999999999851e+00 -4.2826467809378314e-02 +7.2412409166968533e-05 -4.7208121385627659e-03 +3.9454334413525860e-01 +3.6169620894364647e+02 -1.3440283461759822e+02 -1.2929939130719972e+06 
+8.7999999999999847e+00 -4.2826462386139560e-02 +7.3247646259997094e-05 -4.9056529687319574e-03 +4.4136168942425763e-01 +3.6192718856010850e+02 -5.1673412731047495e+02 -1.2896417544031276e+06 
+8.8999999999999844e+00 -4.2826456977544392e-02 +7.3733994978025081e-05 -5.0759330029395127e-03 +4.9393871550850094e-01 +3.6188275751767259e+02 -9.2122646242845553e+02 -1.2850428906239592e+06 
+8.9999999999999840e+00 -4.2826451577454017e-02 +7.3900377561593203e-05 -5.2355483492309233e-03 +5.5102909547077850e-01 +3.6165725486389255e+02 -1.3405821507551300e+03 -1.2796405036726841e+06 
+9.0999999999999837e+00 -4.2826446179888615e-02 +7.3775734352139079e-05 -5.3883686892810820e-03 +6.1138657260258322e-01 +3.6134452710611396e+02 -1.7674970112237340e+03 -1.2738755512352013e+06 
+9.1999999999999833e+00 -4.2826440779031680e-02 +7.3389024944303863e-05 -5.5382366065466837e-03 +6.7376391641127786e-01 +3.6103791604024252e+02 -2.1946600875550985e+03 -1.2681867129131674e+06 
+9.2999999999999829e+00 -4.2826435369237768e-02 +7.2769228027116578e-05 -5.6889664572695705e-03 +7.3691291562383443e-01 +3.6083023790898795e+02 -2.6147535753715638e+03 -1.2630102954956272e+06 
+9.3999999999999826e+00 -4.2826429945034411e-02 +7.1945342516801397e-05 -5.8443439820725709e-03 +7.9958433544840879e-01 +3.6081377637040015e+02 -3.0204525485163058e+03 -1.2587802027021307e+06 
+9.4999999999999822e+00 -4.2826424501129251e-02 +7.0946387354960480e-05 -6.0081252570480794e-03 +8.6052791174311605e-01 +3.6108026325729929e+02 -3.4044248926313994e+03 -1.2559278483600754e+06 
+9.5999999999999819e+00 -4.2826419032414832e-02 +6.9801402455440167e-05 -6.1840359775470772e-03 +9.1849231345499638e-01 +3.6172086550257370e+02 -3.7593310607695880e+03 -1.2548820979617191e+06 
+9.6999999999999815e+00 -4.2826413533971944e-02 +6.8539448879552088e-05 -6.3757708304316742e-03 +9.7222512621245094e-01 +3.6282617356835368e+02 -4.0778239470964763e+03 -1.2560692173282336e+06 
+9.7999999999999812e+00 -4.2826408001077454e-02 +6.7189609318541176e-05 -6.5869924236368936e-03 +1.0204728273877255e+00 +3.6448618182388333e+02 -4.3525487125924710e+03 -1.2599127836839026e+06 
+9.8999999999999808e+00 -4.2826402429206767e-02 +6.5780988725706611e-05 -6.8213307977115648e-03 +1.0619807579877685e+00 +3.6679027977543768e+02 -4.5761425961202885e+03 -1.2668336479493657e+06 
+9.9999999999999805e+00 -4.2826396815933220e-02 +6.4342330703646110e-05 -7.0821219482600922e-03 +1.0955445194767186e+00 +3.6982705939946385e+02 -4.7416351221952955e+03 -1.2772654363844108e+06 
+1.0099999999999980e+01 -4.2826391190218679e-02 +6.2904317093650917e-05 -7.3667564209708184e-03 +1.1203535099566120e+00 +3.7361737943068664e+02 -4.8453088072415694e+03 -1.2914702183666187e+06 
