# multipoles
# s[mm] polynom_b[n=0][T/m^n] polynom_b[n=1][T/m^n] polynom_b[n=2][T/m^n] polynom_b[n=3][T/m^n] polynom_b[n=4][T/m^n] polynom_b[n=5][T/m^n] polynom_b[n=6][T/m^n] 
+0.0000000000000000e+00 -4.3347908623739279e-01 +6.4895972240588407e-03 +5.9514920524840054e-01 -1.1641101447282024e+01 -6.9915066803576137e+03 +1.8158320400006784e+05 +3.6202127690626040e+07 
-1.0000000000000001e-01 -4.3347893762888173e-01 +6.4896964296679693e-03 +5.9206809683286532e-01 -1.1693414243578291e+01 -6.9562826759290601e+03 +1.8189166935575762e+05 +3.6059255377119035e+07 
-2.0000000000000001e-01 -4.3347878746488222e-01 +6.4898791905822276e-03 +5.8866438428721701e-01 -1.1745221448715551e+01 -6.9147487669562142e+03 +1.8219275049552906e+05 +3.5887509207406834e+07 
-3.0000000000000004e-01 -4.3347863612866377e-01 +6.4901212458155517e-03 +5.8497730006577697e-01 -1.1795477116359997e+01 -6.8675596664777831e+03 +1.8248054691824384e+05 +3.5689834053693093e+07 
-4.0000000000000002e-01 -4.3347848400350791e-01 +6.4903983401223093e-03 +5.8104607911237705e-01 -1.1843135558974600e+01 -6.8153701650941539e+03 +1.8274915956533636e+05 +3.5469175303858526e+07 
-5.0000000000000000e-01 -4.3347833147273263e-01 +6.4906862226343188e-03 +5.7690996172728726e-01 -1.1887151318705119e+01 -6.7588351842796537e+03 +1.8299269068432855e+05 +3.5228479106699646e+07 
-5.9999999999999998e-01 -4.3347817891966461e-01 +6.4909606405307583e-03 +5.7260818906876787e-01 -1.1926479011528443e+01 -6.6986096835955941e+03 +1.8320524300355447e+05 +3.4970691909627177e+07 
-6.9999999999999996e-01 -4.3347802672762897e-01 +6.4911973406728577e-03 +5.6818000262396551e-01 -1.1960073382499159e+01 -6.6353486551776941e+03 +1.8338092007040419e+05 +3.4698760439569339e+07 
-7.9999999999999993e-01 -4.3347787527997750e-01 +6.4913720636752244e-03 +5.6366464657157200e-01 -1.1986889158918716e+01 -6.5697071613325306e+03 +1.8351382547362015e+05 +3.4415631858334064e+07 
-8.9999999999999991e-01 -4.3347772496003550e-01 +6.4914605429857008e-03 +5.5910136150313494e-01 -1.2005881036680073e+01 -6.5023402158687077e+03 +1.8359806279722718e+05 +3.4124253197607443e+07 
-9.9999999999999989e-01 -4.3347757615111587e-01 +6.4914385028948893e-03 +5.5452938541061647e-01 -1.2016003642287188e+01 -6.4339027992652709e+03 +1.8362773545467763e+05 +3.3827571417624131e+07 
-1.0999999999999999e+00 -4.3347742923652377e-01 +6.4912816536773802e-03 +5.4998795446115756e-01 -1.2016211407844759e+01 -6.3650498727763052e+03 +1.8359694601122660e+05 +3.3528533467577074e+07 
-1.2000000000000000e+00 -4.3347728459952728e-01 +6.4909656918528645e-03 +5.4551629851671390e-01 -1.2005458599805698e+01 -6.2964362883675130e+03 +1.8349979640483888e+05 +3.3230085842434809e+07 
-1.3000000000000000e+00 -4.3347714262336340e-01 +6.4904662956675506e-03 +5.4115364209099170e-01 -1.1982699201762035e+01 -6.2287168087644332e+03 +1.8333038730932915e+05 +3.2935174678883441e+07 
-1.4000000000000001e+00 -4.3347700369123454e-01 +6.4897591236414065e-03 +5.3693920330845601e-01 -1.1946886889967217e+01 -6.1625460806933479e+03 +1.8308281803743122e+05 +3.2646745604489878e+07 
-1.5000000000000002e+00 -4.3347686818628262e-01 +6.4888198101212694e-03 +5.3291219050157779e-01 -1.1896974921425384e+01 -6.0985785719943142e+03 +1.8275118594092960e+05 +3.2367743442574091e+07 
-1.6000000000000003e+00 -4.3347673649160579e-01 +6.4876239661877952e-03 +5.2911180406662650e-01 -1.1831916185596002e+01 -6.0374686027364833e+03 +1.8232958677985848e+05 +3.2101112342526238e+07 
-1.7000000000000004e+00 -4.3347660899023172e-01 +6.4861471730379228e-03 +5.2557723275741552e-01 -1.1750663018213807e+01 -5.9798702735140014e+03 +1.8181211366009925e+05 +3.1849795433983777e+07 
-1.8000000000000005e+00 -4.3347648606513128e-01 +6.4843649824788858e-03 +5.2234765522784987e-01 -1.1652167240977318e+01 -5.9264374920166720e+03 +1.8119285733248695e+05 +3.1616734940253787e+07 
-1.9000000000000006e+00 -4.3347636809918477e-01 +6.4822529123679546e-03 +5.1946223528012103e-01 -1.1535380045485956e+01 -5.8778238799085739e+03 +1.8046590556414309e+05 +3.1404871726051472e+07 
-2.0000000000000004e+00 -4.3347625547514740e-01 +6.4797864228414385e-03 +5.1696011390511909e-01 -1.1399251582129629e+01 -5.8346826366663727e+03 +1.7962533959655956e+05 +3.1217144549756981e+07 
-2.1000000000000005e+00 -4.3347614838633874e-01 +6.4769364800571728e-03 +5.1486410987896658e-01 -1.1242952840673485e+01 -5.7974195879696226e+03 +1.7866692230292683e+05 +3.1055440978659708e+07 
-2.2000000000000006e+00 -4.3347604634837439e-01 +6.4736732048214134e-03 +5.1314336704938190e-01 -1.1066745341026758e+01 -5.7656229389821083e+03 +1.7759465332493139e+05 +3.0918142487948850e+07 
-2.3000000000000007e+00 -4.3347594872288447e-01 +6.4699698819696474e-03 +5.1175570070885068e-01 -1.0871229482673998e+01 -5.7387042031593901e+03 +1.7641511468438563e+05 +3.0802847341683079e+07 
-2.4000000000000008e+00 -4.3347585487146650e-01 +6.4657998493877489e-03 +5.1065892547853609e-01 -1.0657007594853956e+01 -5.7160748794035680e+03 +1.7513490187211082e+05 +3.0707153572105151e+07 
-2.5000000000000009e+00 -4.3347576415566463e-01 +6.4611364968740403e-03 +5.0981085425472106e-01 -1.0424683560452848e+01 -5.6971464785319695e+03 +1.7376061977968688e+05 +3.0628659345361687e+07 
-2.6000000000000010e+00 -4.3347567593702940e-01 +6.4559532670283972e-03 +5.0916930690139994e-01 -1.0174862815175159e+01 -5.6813306930598173e+03 +1.7229888267612192e+05 +3.0564963769609038e+07 
-2.7000000000000011e+00 -4.3347558957705634e-01 +6.4502236642653638e-03 +5.0869210260882969e-01 -9.9081525974085505e+00 -5.6680392536251948e+03 +1.7075631567577264e+05 +3.0513666215083715e+07 
-2.8000000000000012e+00 -4.3347550443722271e-01 +6.4439212599057679e-03 +5.0833706532003220e-01 -9.6251620627657015e+00 -5.6566840362432686e+03 +1.6913955536239964e+05 +3.0472366826016642e+07 
-2.9000000000000012e+00 -4.3347541987898175e-01 +6.4370196981745793e-03 +5.0806202394596123e-01 -9.3265024511505334e+00 -5.6466770705610270e+03 +1.6745525079022537e+05 +3.0438666563945550e+07 
-3.0000000000000013e+00 -4.3347533526375509e-01 +6.4294927043670016e-03 +5.0782481176039707e-01 -9.0127872936739433e+00 -5.6374305311529024e+03 +1.6571006465424452e+05 +3.0410167167812176e+07 
-3.1000000000000014e+00 -4.3347524995295400e-01 +6.4213140887687216e-03 +5.0758326964695044e-01 -8.6846325082707096e+00 -5.6283568011048792e+03 +1.6391067384310602e+05 +3.0384471454275325e+07 
-3.2000000000000015e+00 -4.3347516330795038e-01 +6.4124577528732940e-03 +5.0729524333117226e-01 -8.3426565629069689e+00 -5.6188684253343490e+03 +1.6206377039180446e+05 +3.0359183105444063e+07 
-3.3000000000000016e+00 -4.3347507469010899e-01 +6.4028976978160995e-03 +5.0691858787854616e-01 -7.9874806939887657e+00 -5.6083781970296104e+03 +1.6017606272622960e+05 +3.0331907074273501e+07 
-3.4000000000000017e+00 -4.3347498346076996e-01 +6.3926080286931539e-03 +5.0641116630329108e-01 -7.6197290163674474e+00 -5.5962991363312049e+03 +1.5825427631000095e+05 +3.0300249491114914e+07 
-3.5000000000000018e+00 -4.3347488898125008e-01 +6.3815629598424316e-03 +5.0573085029122655e-01 -7.2400286521647592e+00 -5.5820445065956346e+03 +1.5630515437835705e+05 +3.0261817741213702e+07 
-3.6000000000000019e+00 -4.3347479061285132e-01 +6.3697368253535711e-03 +5.0483552177126434e-01 -6.8490100137084937e+00 -5.5650278467597045e+03 +1.5433545956107732e+05 +3.0214220617727734e+07 
-3.7000000000000020e+00 -4.3347468771686387e-01 +6.3571040787145624e-03 +5.0368307417442260e-01 -6.4473067783104359e+00 -5.5446630006263777e+03 +1.5235197375686333e+05 +3.0155068468910854e+07 
-3.8000000000000020e+00 -4.3347457965455788e-01 +6.3436393044749304e-03 +5.0223141195842491e-01 -6.0355561986303909e+00 -5.5203641096718547e+03 +1.5036149989829009e+05 +3.0081973161616649e+07 
-3.9000000000000021e+00 -4.3347446578719923e-01 +6.3293172231488415e-03 +5.0043845319214098e-01 -5.6143992282194706e+00 -5.4915456654457794e+03 +1.4837086268708340e+05 +2.9992548332248516e+07 
-4.0000000000000018e+00 -4.3347434547646740e-01 +6.3141127649153327e-03 +4.9826220402781957e-01 -5.1844773941029771e+00 -5.4576235133775554e+03 +1.4638686037026171e+05 +2.9884411120131034e+07 
-4.1000000000000014e+00 -4.3347421832877803e-01 +6.2980271600291725e-03 +4.9568047470894439e-01 -4.7465863471895018e+00 -5.4183050935365654e+03 +1.4441502733387257e+05 +2.9756278587906651e+07 
-4.2000000000000011e+00 -4.3347408484079097e-01 +6.2811550106662206e-03 +4.9272789711753284e-01 -4.3024960100634653e+00 -5.3741288663957084e+03 +1.4246105733671575e+05 +2.9610219418860216e+07 
-4.3000000000000007e+00 -4.3347394573245851e-01 +6.2636141485504677e-03 +4.8945096595156179e-01 -3.8541678193497630e+00 -5.3258173056310279e+03 +1.4053016060979065e+05 +2.9449144340762354e+07 
-4.4000000000000004e+00 -4.3347380172414374e-01 +6.2455221251300095e-03 +4.8589622763447443e-01 -3.4035506292253235e+00 -5.2740942614072319e+03 +1.3862745243597380e+05 +2.9275972917929087e+07 
-4.5000000000000000e+00 -4.3347365353633627e-01 +6.2269963749430075e-03 +4.8211023159022726e-01 -2.9525894351440116e+00 -5.2196834796110334e+03 +1.3675802405218405e+05 +2.9093623787256844e+07 
-4.5999999999999996e+00 -4.3347350188963707e-01 +6.2081542109830483e-03 +4.7813952770899798e-01 -2.5032252076322012e+00 -5.1633085469953512e+03 +1.3492694155640018e+05 +2.8905014384723954e+07 
-4.6999999999999993e+00 -4.3347334750474276e-01 +6.1891128154720684e-03 +4.7403066317727249e-01 -2.0573946032108772e+00 -5.1056928188018537e+03 +1.3313924413760626e+05 +2.8713060573158812e+07 
-4.7999999999999989e+00 -4.3347319110250321e-01 +6.1699892276685835e-03 +4.6983018863827530e-01 -1.6170295893100981e+00 -5.0475595236429799e+03 +1.3139994180922740e+05 +2.8520677108885255e+07 
-4.8999999999999986e+00 -4.3347303340386045e-01 +6.1509003396182744e-03 +4.6558464996801108e-01 -1.1840572879005378e+00 -4.9896315997007259e+03 +1.2971401437087306e+05 +2.8330776849256955e+07 
-4.9999999999999982e+00 -4.3347287512993726e-01 +6.1319628836939552e-03 +4.6134059807770827e-01 -7.6039959984135763e-01 -4.9326318675308321e+03 +1.2808640915859483e+05 +2.8146271537696250e+07 
-5.0999999999999979e+00 -4.3347271700197365e-01 +6.1132934254156512e-03 +4.5714457995310642e-01 -3.4797296460131344e-01 -4.8772828496643060e+03 +1.2652203952984908e+05 +2.7970070925994866e+07 
-5.1999999999999975e+00 -4.3347255974135779e-01 +6.0950083554996929e-03 +4.5304314187270400e-01 +5.1311892791541046e-02 -4.8243068230911458e+03 +1.2502578329442420e+05 +2.7805083002651740e+07 
-5.2999999999999972e+00 -4.3347240406964838e-01 +6.0772238792278742e-03 +4.4908283121025999e-01 +4.3555029012566521e-01 -4.7744258416247103e+03 +1.2360248072557343e+05 +2.7654214070059028e+07 
-5.3999999999999968e+00 -4.3347225070856482e-01 +6.0600560073692071e-03 +4.4531019389905219e-01 +8.0284387942885449e-01 -4.7283616755658477e+03 +1.2225693275977328e+05 +2.7520368429323971e+07 
-5.4999999999999964e+00 -4.3347210037998857e-01 +6.0436205507338669e-03 +4.4177177391588307e-01 +1.1513008280931343e+00 -4.6868357939680773e+03 +1.2099389984378716e+05 +2.7406448279376857e+07 
-5.5999999999999961e+00 -4.3347195380598791e-01 +6.0280331073408215e-03 +4.3851411552468311e-01 +1.4790362114134927e+00 -4.6505693952184338e+03 +1.1981809957332387e+05 +2.7315353831444725e+07 
-5.6999999999999957e+00 -4.3347181170880977e-01 +6.0134090550423968e-03 +4.3558376106209323e-01 +1.7841722568411145e+00 -4.6202833549168827e+03 +1.1873420516118783e+05 +2.7249983040045395e+07 
-5.7999999999999954e+00 -4.3347167481089011e-01 +5.9998635440512938e-03 +4.3302725129415365e-01 +2.0648385746902727e+00 -4.5966982211729483e+03 +1.1774684402476308e+05 +2.7213231552752130e+07 
-5.8999999999999950e+00 -4.3347154383486319e-01 +5.9875114867011621e-03 +4.3089112585119738e-01 +2.3191724862342227e+00 -4.5805342142005456e+03 +1.1686059576957328e+05 +2.7207992689353921e+07 
-5.9999999999999947e+00 -4.3347141950206453e-01 +5.9764671736407191e-03 +4.2922164981145039e-01 +2.5453193506865954e+00 -4.5725060371550462e+03 +1.1608017043872197e+05 +2.7237147016404096e+07 
-6.0999999999999943e+00 -4.3347130233850995e-01 +5.9668072921727497e-03 +4.2804831905431412e-01 +2.7422423755066041e+00 -4.5730309840421969e+03 +1.1540877752807811e+05 +2.7302427145146657e+07 
-6.1999999999999940e+00 -4.3347119209865592e-01 +5.9584957068342121e-03 +4.2735419093433641e-01 +2.9110595229620357e+00 -4.5817663545356063e+03 +1.1484189445293810e+05 +2.7402330510578670e+07 
-6.2999999999999936e+00 -4.3347108830741871e-01 +5.9514736196857477e-03 +4.2710971987296181e-01 +3.0529624993527396e+00 -4.5981372661392352e+03 +1.1437595257382757e+05 +2.7534216254888091e+07 
-6.3999999999999932e+00 -4.3347099048870114e-01 +5.9456830493812675e-03 +4.2728516877696204e-01 +3.1691036411414966e+00 -4.6215628840245136e+03 +1.1400765150031248e+05 +2.7695407650034543e+07 
-6.4999999999999929e+00 -4.3347089816635226e-01 +5.9410660507342753e-03 +4.2785079855714608e-01 +3.2606336904303213e+00 -4.6514623999717915e+03 +1.1373370194592574e+05 +2.7883228189460326e+07 
-6.5999999999999925e+00 -4.3347081086417000e-01 +5.9375647169729786e-03 +4.2877686956672101e-01 +3.3287017072192842e+00 -4.6872550708092713e+03 +1.1355082631940777e+05 +2.8095001797244620e+07 
-6.6999999999999922e+00 -4.3347072810586990e-01 +5.9351211822761618e-03 +4.3003363782132287e-01 +3.3744549620109487e+00 -4.7283601504345033e+03 +1.1345575945609697e+05 +2.8328052515183397e+07 
-6.7999999999999918e+00 -4.3347064941512287e-01 +5.9336776265394055e-03 +4.3159135991752767e-01 +3.3990387696305078e+00 -4.7741969856731475e+03 +1.1344524967747022e+05 +2.8579704958798323e+07 
-6.8999999999999915e+00 -4.3347057431551900e-01 +5.9331762767148230e-03 +4.3342028921433429e-01 +3.4035964205851021e+00 -4.8241849527122213e+03 +1.1351605928536707e+05 +2.8847284039894633e+07 
-6.9999999999999911e+00 -4.3347050233056833e-01 +5.9335594108846472e-03 +4.3549067626145055e-01 +3.3892690347369285e+00 -4.8777434696848541e+03 +1.1366496550956325e+05 +2.9128115033707533e+07 
-7.0999999999999908e+00 -4.3347043298372934e-01 +5.9347693621616023e-03 +4.3777277271766241e-01 +3.3571954185852166e+00 -4.9342920765137960e+03 +1.1388876142920506e+05 +2.9419523970836800e+07 
-7.1999999999999904e+00 -4.3347036579835113e-01 +5.9367485207756331e-03 +4.4023682451520824e-01 +3.3085119753488419e+00 -4.9932503096086402e+03 +1.1418425659501555e+05 +2.9718837052112978e+07 
-7.2999999999999901e+00 -4.3347030029771327e-01 +5.9394393360679421e-03 +4.4285307725829809e-01 +3.2443526216245946e+00 -5.0540378105754535e+03 +1.1454827759764112e+05 +3.0023381178067669e+07 
-7.3999999999999897e+00 -4.3347023600500884e-01 +5.9427843237788340e-03 +4.4559177463349708e-01 +3.1658485413299373e+00 -5.1160743023686000e+03 +1.1497766960629664e+05 +3.0330483850449000e+07 
-7.4999999999999893e+00 -4.3347017244333058e-01 +5.9467260642022540e-03 +4.4842315692288448e-01 +3.0741282154122977e+00 -5.1787795648729234e+03 +1.1546929627959973e+05 +3.0637473063761964e+07 
-7.5999999999999890e+00 -4.3347010913567918e-01 +5.9512072082455476e-03 +4.5131746255180982e-01 +2.9703172192400027e+00 -5.2415734709633807e+03 +1.1602004102881120e+05 +3.0941677492044277e+07 
-7.6999999999999886e+00 -4.3347004560495850e-01 +5.9561704809985043e-03 +4.5424492780035020e-01 +2.8555380812852831e+00 -5.3038759855747076e+03 +1.1662680795678045e+05 +3.1240426493441157e+07 
-7.7999999999999883e+00 -4.3346998137396331e-01 +5.9615586823839719e-03 +4.5717578595568692e-01 +2.7309102480892808e+00 -5.3651071570016902e+03 +1.1728652212140649e+05 +3.1531050087026700e+07 
-7.8999999999999879e+00 -4.3346991596539974e-01 +5.9673146934798417e-03 +4.6008026981005029e-01 +2.5975498667610752e+00 -5.4246871663044585e+03 +1.1799613090637959e+05 +3.1810879188048191e+07 
-7.9999999999999876e+00 -4.3346984890239987e-01 +5.9733812736478499e-03 +4.6292867424878376e-01 +2.4565821096231595e+00 -5.4820380520504441e+03 +1.1875223604853138e+05 +3.2077230441038966e+07 
-8.0999999999999872e+00 -4.3346977977931511e-01 +5.9797079393687468e-03 +4.6569389752754264e-01 +2.3087095523437058e+00 -5.5366515755200689e+03 +1.1955205117138597e+05 +3.2327635278536923e+07 
-8.1999999999999869e+00 -4.3346970860175471e-01 +5.9862646879259383e-03 +4.6837163072681071e-01 +2.1542246913871415e+00 -5.5884395291361543e+03 +1.2039371800821630e+05 +3.2561576589502461e+07 
-8.2999999999999865e+00 -4.3346963551488682e-01 +5.9930062669120215e-03 +4.7096856140733567e-01 +1.9944179127116841e+00 -5.6375725259099154e+03 +1.2126854952938862e+05 +3.2779933142107978e+07 
-8.3999999999999861e+00 -4.3346956066411824e-01 +5.9998851839514703e-03 +4.7349165303287322e-01 +1.8306871662306423e+00 -5.6842333764613140e+03 +1.2216714031050078e+05 +3.2983663122364067e+07 
-8.4999999999999858e+00 -4.3346948419468168e-01 +6.0068539567794772e-03 +4.7594784877022261e-01 +1.6644302730420484e+00 -5.7286045361894330e+03 +1.2308008559934473e+05 +3.3173723368486177e+07 
-8.5999999999999854e+00 -4.3346940625160840e-01 +6.0138651184076216e-03 +4.7834406746636327e-01 +1.4970447866302861e+00 -5.7708680254309311e+03 +1.2399798208536889e+05 +3.3351068992143147e+07 
-8.6999999999999851e+00 -4.3346932697973828e-01 +6.0208712116877998e-03 +4.8068720546457711e-01 +1.3299281499390607e+00 -5.8112054683107453e+03 +1.2491142701146244e+05 +3.3516653581922453e+07 
-8.7999999999999847e+00 -4.3346924652371410e-01 +6.0278247951199536e-03 +4.8298413591749378e-01 +1.1644775412122990e+00 -5.8497980811192865e+03 +1.2581101902426388e+05 +3.3671429160958812e+07 
-8.8999999999999844e+00 -4.3346916502796456e-01 +6.0346784418111362e-03 +4.8524170656570081e-01 +1.0020899040620401e+00 -5.8868266295824305e+03 +1.2668735800949459e+05 +3.3816345990927376e+07 
-8.9999999999999840e+00 -4.3346908263671191e-01 +6.0413847402661005e-03 +4.8746674084362723e-01 +8.4416193516823235e-01 -5.9224714524171268e+03 +1.2753104513949047e+05 +3.3952352699568644e+07 
-9.0999999999999837e+00 -4.3346899949395412e-01 +6.0478962945590799e-03 +4.8966603553896604e-01 +6.9209008045328246e-01 -5.9569124168331446e+03 +1.2833268289973597e+05 +3.4080396078102946e+07 
-9.1999999999999833e+00 -4.3346891574347457e-01 +6.0541657278915702e-03 +4.9184636243619839e-01 +5.4727044314925744e-01 -5.9903289522630948e+03 +1.2908287559150091e+05 +3.4201421254482225e+07 
-9.2999999999999829e+00 -4.3346883152881244e-01 +6.0601456803487429e-03 +4.9401446411740885e-01 +4.1109885393745760e-01 -6.0228999696904248e+03 +1.2977222892318600e+05 +3.4316371319359638e+07 
-9.3999999999999826e+00 -4.3346874699329380e-01 +6.0657888114567550e-03 +4.9617705826997233e-01 +2.8497079736119951e-01 -6.0548039464697586e+03 +1.3039135043714778e+05 +3.4426187742902324e+07 
-9.4999999999999822e+00 -4.3346866227998160e-01 +6.0710478005410462e-03 +4.9834083170260179e-01 +1.7028141250318957e-01 -6.0862188142677360e+03 +1.3093084948346627e+05 +3.4531809856289983e+07 
-9.5999999999999819e+00 -4.3346857753170753e-01 +6.0758753483446505e-03 +5.0051244376807025e-01 +6.8425450961582715e-02 -6.1173220223022327e+03 +1.3138133745209451e+05 +3.4634175155716814e+07 
-9.6999999999999815e+00 -4.3346849289105210e-01 +6.0802241760326481e-03 +5.0269852444305430e-01 -1.9202687117890246e-02 -6.1482905049015326e+03 +1.3173342755399179e+05 +3.4734219167089850e+07 
-9.7999999999999812e+00 -4.3346840850031926e-01 +6.0840470289059813e-03 +5.0490567088137950e-01 -9.1209063002136326e-02 -6.1793006157525424e+03 +1.3197773546562108e+05 +3.4832875143161446e+07 
-9.8999999999999808e+00 -4.3346832450157657e-01 +6.0872966760263164e-03 +5.0714045268224806e-01 -1.4620017241911343e-01 -6.2105282283259630e+03 +1.3210487913910925e+05 +3.4931074546153411e+07 
-9.9999999999999805e+00 -4.3346824103737769e-01 +6.0899279690122049e-03 +5.0940973948271451e-01 -1.8287194987668992e-01 -6.2421590088706589e+03 +1.3210630982800983e+05 +3.5029830029767469e+07 
-1.0099999999999980e+01 -4.3346815821559825e-01 +6.0919150797622479e-03 +5.1172198108465627e-01 -2.0041986214961752e-01 -6.2744290779925914e+03 +1.3197726115244761e+05 +3.5130526792355083e+07 
