# trajectory
# s[mm] rx[mm] ry[mm] rz[mm] px[rad] py[rad] pz[rad]
0.0000000000000000e+00 +4.6467000000000001e+00 +0.0000000000000000e+00 +0.0000000000000000e+00 +0.0000000000000000e+00 +0.0000000000000000e+00 +1.0000000000000000e+00
1.0000000000000001e-01 +4.6466956814959604e+00 +0.0000000000000000e+00 +9.9999999875670154e-02 -8.6370082605428480e-05 +0.0000000000000000e+00 +9.9999999627010439e-01
2.0000000000000001e-01 +4.6466827259831094e+00 +0.0000000000000000e+00 +1.9999999900536108e-01 -1.7274017630090351e-04 +0.0000000000000000e+00 +9.9999998508041565e-01
3.0000000000000004e-01 +4.6466611334603183e+00 +0.0000000000000000e+00 +2.9999999664309340e-01 -2.5911028145800404e-04 +0.0000000000000000e+00 +9.9999996643093048e-01
4.0000000000000002e-01 +4.6466309039264280e+00 +0.0000000000000000e+00 +3.9999999204288722e-01 -3.4548039829759402e-04 +0.0000000000000000e+00 +9.9999994032164541e-01
5.0000000000000000e-01 +4.6465920373802660e+00 +0.0000000000000000e+00 +4.9999998445876237e-01 -4.3185052688981320e-04 +0.0000000000000000e+00 +9.9999990675255690e-01
5.9999999999999998e-01 +4.6465445338206601e+00 +0.0000000000000000e+00 +5.9999997314473830e-01 -5.1822066715406399e-04 +0.0000000000000000e+00 +9.9999986572366106e-01
6.9999999999999996e-01 +4.6464883932464538e+00 +0.0000000000000000e+00 +6.9999995735483411e-01 -6.0459081885899505e-04 +0.0000000000000000e+00 +9.9999981723495424e-01
7.9999999999999993e-01 +4.6464236156565200e+00 +0.0000000000000000e+00 +7.9999993634306854e-01 -6.9096098162248101e-04 +0.0000000000000000e+00 +9.9999976128643253e-01
8.9999999999999991e-01 +4.6463502010497786e+00 +0.0000000000000000e+00 +8.9999990936345997e-01 -7.7733115491159866e-04 +0.0000000000000000e+00 +9.9999969787809229e-01
9.9999999999999989e-01 +4.6462681494252100e+00 +0.0000000000000000e+00 +9.9999987567002624e-01 -8.6370133804259980e-04 +0.0000000000000000e+00 +9.9999962700992995e-01
1.0999999999999999e+00 +4.6461774607818702e+00 +0.0000000000000000e+00 +1.0999998345167850e+00 -9.5007153018087992e-04 +0.0000000000000000e+00 +9.9999954868194207e-01
1.2000000000000000e+00 +4.6460781351189064e+00 +0.0000000000000000e+00 +1.1999997851577535e+00 -1.0364417303409437e-03 +0.0000000000000000e+00 +9.9999946289412567e-01
1.3000000000000000e+00 +4.6459701724355726e+00 +0.0000000000000000e+00 +1.2999997268469490e+00 -1.1228119373863667e-03 +0.0000000000000000e+00 +9.9999936964647806e-01
1.4000000000000001e+00 +4.6458535727312427e+00 +0.0000000000000000e+00 +1.3999996588383881e+00 -1.2091821500297534e-03 +0.0000000000000000e+00 +9.9999926893899693e-01
1.5000000000000002e+00 +4.6457283360054280e+00 +0.0000000000000000e+00 +1.4999995803860873e+00 -1.2955523668326924e-03 +0.0000000000000000e+00 +9.9999916077168038e-01
1.6000000000000003e+00 +4.6455944622577903e+00 +0.0000000000000000e+00 +1.5999994907440629e+00 -1.3819225862057066e-03 +0.0000000000000000e+00 +9.9999904514452709e-01
1.7000000000000004e+00 +4.6454519514881589e+00 +0.0000000000000000e+00 +1.6999993891663314e+00 -1.4682928064082008e-03 +0.0000000000000000e+00 +9.9999892205753649e-01
1.8000000000000005e+00 +4.6453008036965437e+00 +0.0000000000000000e+00 +1.7999992749069089e+00 -1.5546630255484056e-03 +0.0000000000000000e+00 +9.9999879151070836e-01
1.9000000000000006e+00 +4.6451410188831526e+00 +0.0000000000000000e+00 +1.8999991472198119e+00 -1.6410332415833177e-03 +0.0000000000000000e+00 +9.9999865350404360e-01
2.0000000000000004e+00 +4.6449725970484037e+00 +0.0000000000000000e+00 +1.9999990053590566e+00 -1.7274034523186363e-03 +0.0000000000000000e+00 +9.9999850803754364e-01
2.1000000000000005e+00 +4.6447955381929429e+00 +0.0000000000000000e+00 +2.0999988485786596e+00 -1.8137736554176519e-03 +0.0000000000000000e+00 +9.9999835511121082e-01
2.2000000000000006e+00 +4.6446098423176538e+00 +0.0000000000000000e+00 +2.1999986761326378e+00 -1.9001438484996963e-03 +0.0000000000000000e+00 +9.9999819472504814e-01
2.3000000000000007e+00 +4.6444155094236548e+00 +0.0000000000000000e+00 +2.2999984872750083e+00 -1.9865140292386336e-03 +0.0000000000000000e+00 +9.9999802687905937e-01
2.4000000000000008e+00 +4.6442125395122931e+00 +0.0000000000000000e+00 +2.3999982812597889e+00 -2.0728841953718160e-03 +0.0000000000000000e+00 +9.9999785157324861e-01
2.5000000000000009e+00 +4.6440009325851408e+00 +0.0000000000000000e+00 +2.4999980573409974e+00 -2.1592543447000890e-03 +0.0000000000000000e+00 +9.9999766880762042e-01
2.6000000000000010e+00 +4.6437806886439850e+00 +0.0000000000000000e+00 +2.5999978147726526e+00 -2.2456244750878027e-03 +0.0000000000000000e+00 +9.9999747858217991e-01
2.7000000000000011e+00 +4.6435518076908240e+00 +0.0000000000000000e+00 +2.6999975528087732e+00 -2.3319945844628271e-03 +0.0000000000000000e+00 +9.9999728089693252e-01
2.8000000000000012e+00 +4.6433142897278596e+00 +0.0000000000000000e+00 +2.7999972707033791e+00 -2.4183646708165712e-03 +0.0000000000000000e+00 +9.9999707575188412e-01
2.9000000000000012e+00 +4.6430681347574927e+00 +0.0000000000000000e+00 +2.8999969677104902e+00 -2.5047347322040086e-03 +0.0000000000000000e+00 +9.9999686314704095e-01
3.0000000000000013e+00 +4.6428133427823139e+00 +0.0000000000000000e+00 +2.9999966430841276e+00 -2.5911047667437062e-03 +0.0000000000000000e+00 +9.9999664308240965e-01
3.1000000000000014e+00 +4.6425499138050998e+00 +0.0000000000000000e+00 +3.0999962960783130e+00 -2.6774747726178586e-03 +0.0000000000000000e+00 +9.9999641555799712e-01
3.2000000000000015e+00 +4.6422778478288045e+00 +0.0000000000000000e+00 +3.1999959259470683e+00 -2.7638447480723268e-03 +0.0000000000000000e+00 +9.9999618057381046e-01
3.3000000000000016e+00 +4.6419971448565560e+00 +0.0000000000000000e+00 +3.2999955319444165e+00 -2.8502146914166824e-03 +0.0000000000000000e+00 +9.9999593812985721e-01
3.4000000000000017e+00 +4.6417078048916460e+00 +0.0000000000000000e+00 +3.3999951133243811e+00 -2.9365846010242537e-03 +0.0000000000000000e+00 +9.9999568822614504e-01
3.5000000000000018e+00 +4.6414098279375278e+00 +0.0000000000000000e+00 +3.4999946693409871e+00 -3.0229544753321812e-03 +0.0000000000000000e+00 +9.9999543086268172e-01
3.6000000000000019e+00 +4.6411032139978063e+00 +0.0000000000000000e+00 +3.5999941992482594e+00 -3.1093243128414729e-03 +0.0000000000000000e+00 +9.9999516603947536e-01
3.7000000000000020e+00 +4.6407879630762343e+00 +0.0000000000000000e+00 +3.6999937023002243e+00 -3.1956941121170685e-03 +0.0000000000000000e+00 +9.9999489375653416e-01
3.8000000000000020e+00 +4.6404640751767037e+00 +0.0000000000000000e+00 +3.7999931777509088e+00 -3.2820638717879044e-03 +0.0000000000000000e+00 +9.9999461401386647e-01
3.9000000000000021e+00 +4.6401315503032405e+00 +0.0000000000000000e+00 +3.8999926248543404e+00 -3.3684335905469868e-03 +0.0000000000000000e+00 +9.9999432681148059e-01
4.0000000000000018e+00 +4.6397903884599989e+00 +0.0000000000000000e+00 +3.9999920428645477e+00 -3.4548032671514670e-03 +0.0000000000000000e+00 +9.9999403214938509e-01
4.1000000000000014e+00 +4.6394405896512545e+00 +0.0000000000000000e+00 +4.0999914310355603e+00 -3.5411729004256624e-03 +0.0000000000000000e+00 +9.9999373002758840e-01
4.2000000000000011e+00 +4.6390821538813940e+00 +0.0000000000000000e+00 +4.1999907886214087e+00 -3.6275424892934726e-03 +0.0000000000000000e+00 +9.9999342044609896e-01
4.3000000000000007e+00 +4.6387150811549072e+00 +0.0000000000000000e+00 +4.2999901148761239e+00 -3.7139120328107808e-03 +0.0000000000000000e+00 +9.9999310340492475e-01
4.4000000000000004e+00 +4.6383393714763708e+00 +0.0000000000000000e+00 +4.3999894090537381e+00 -3.8002815301684412e-03 +0.0000000000000000e+00 +9.9999277890407356e-01
4.5000000000000000e+00 +4.6379550248504353e+00 +0.0000000000000000e+00 +4.4999886704082837e+00 -3.8866509806923270e-03 +0.0000000000000000e+00 +9.9999244694355272e-01
4.5999999999999996e+00 +4.6375620412818117e+00 +0.0000000000000000e+00 +4.5999878981937936e+00 -3.9730203838433805e-03 +0.0000000000000000e+00 +9.9999210752336909e-01
4.6999999999999993e+00 +4.6371604207752588e+00 +0.0000000000000000e+00 +4.6999870916643021e+00 -4.0593897392176637e-03 +0.0000000000000000e+00 +9.9999176064352902e-01
4.7999999999999989e+00 +4.6367501633355692e+00 +0.0000000000000000e+00 +4.7999862500738439e+00 -4.1457590465464123e-03 +0.0000000000000000e+00 +9.9999140630403816e-01
4.8999999999999986e+00 +4.6363312689675551e+00 +0.0000000000000000e+00 +4.8999853726764542e+00 -4.2321283056960890e-03 +0.0000000000000000e+00 +9.9999104450490162e-01
4.9999999999999982e+00 +4.6359037376760357e+00 +0.0000000000000000e+00 +4.9999844587261695e+00 -4.3184975166684417e-03 +0.0000000000000000e+00 +9.9999067524612373e-01
5.0999999999999979e+00 +4.6354675694658232e+00 +0.0000000000000000e+00 +5.0999835074770248e+00 -4.4048666796005619e-03 +0.0000000000000000e+00 +9.9999029852770815e-01
5.1999999999999975e+00 +4.6350227643417083e+00 +0.0000000000000000e+00 +5.1999825181830568e+00 -4.4912357947649436e-03 +0.0000000000000000e+00 +9.9998991434965767e-01
5.2999999999999972e+00 +4.6345693223084492e+00 +0.0000000000000000e+00 +5.2999814900983022e+00 -4.5776048625695460e-03 +0.0000000000000000e+00 +9.9998952271197428e-01
5.3999999999999968e+00 +4.6341072433707557e+00 +0.0000000000000000e+00 +5.3999804224767978e+00 -4.6639738835578580e-03 +0.0000000000000000e+00 +9.9998912361465886e-01
5.4999999999999964e+00 +4.6336365275332758e+00 +0.0000000000000000e+00 +5.4999793145725802e+00 -4.7503428584089605e-03 +0.0000000000000000e+00 +9.9998871705771142e-01
5.5999999999999961e+00 +4.6331571748005844e+00 +0.0000000000000000e+00 +5.5999781656396861e+00 -4.8367117879375976e-03 +0.0000000000000000e+00 +9.9998830304113084e-01
5.6999999999999957e+00 +4.6326691851771677e+00 +0.0000000000000000e+00 +5.6999769749321523e+00 -4.9230806730942399e-03 +0.0000000000000000e+00 +9.9998788156491492e-01
5.7999999999999954e+00 +4.6321725586674090e+00 +0.0000000000000000e+00 +5.7999757417040145e+00 -5.0094495149651599e-03 +0.0000000000000000e+00 +9.9998745262906030e-01
5.8999999999999950e+00 +4.6316672952755766e+00 +0.0000000000000000e+00 +5.8999744652093096e+00 -5.0958183147725008e-03 +0.0000000000000000e+00 +9.9998701623356234e-01
5.9999999999999947e+00 +4.6311533950058115e+00 +0.0000000000000000e+00 +5.9999731447020723e+00 -5.1821870738743489e-03 +0.0000000000000000e+00 +9.9998657237841515e-01
6.0999999999999943e+00 +4.6306308578621094e+00 +0.0000000000000000e+00 +6.0999717794363377e+00 -5.2685557937501440e-03 +0.0000000000000000e+00 +9.9998612106361162e-01
6.1999999999999940e+00 +4.6300996838483206e+00 +0.0000000000000000e+00 +6.1999703686661398e+00 -5.3549244758392678e-03 +0.0000000000000000e+00 +9.9998566228914409e-01
6.2999999999999936e+00 +4.6295598729681595e+00 +0.0000000000000000e+00 +6.2999689116455109e+00 -5.4412931213795096e-03 +0.0000000000000000e+00 +9.9998519605500524e-01
6.3999999999999932e+00 +4.6290114252252286e+00 +0.0000000000000000e+00 +6.3999674076284849e+00 -5.5276617313923830e-03 +0.0000000000000000e+00 +9.9998472236118852e-01
6.4999999999999929e+00 +4.6284543406230378e+00 +0.0000000000000000e+00 +6.4999658558690925e+00 -5.6140303066831414e-03 +0.0000000000000000e+00 +9.9998424120768803e-01
6.5999999999999925e+00 +4.6278886191650290e+00 +0.0000000000000000e+00 +6.5999642556213658e+00 -5.7003988478407921e-03 +0.0000000000000000e+00 +9.9998375259449868e-01
6.6999999999999922e+00 +4.6273142608545950e+00 +0.0000000000000000e+00 +6.6999626061393354e+00 -5.7867673552381114e-03 +0.0000000000000000e+00 +9.9998325652161613e-01
6.7999999999999918e+00 +4.6267312656951018e+00 +0.0000000000000000e+00 +6.7999609066770326e+00 -5.8731358290316574e-03 +0.0000000000000000e+00 +9.9998275298903716e-01
6.8999999999999915e+00 +4.6261396336899105e+00 +0.0000000000000000e+00 +6.8999591564884870e+00 -5.9595042691617832e-03 +0.0000000000000000e+00 +9.9998224199675956e-01
6.9999999999999911e+00 +4.6255393648424006e+00 +0.0000000000000000e+00 +6.9999573548277283e+00 -6.0458726753526496e-03 +0.0000000000000000e+00 +9.9998172354478232e-01
7.0999999999999908e+00 +4.6249304591559879e+00 +0.0000000000000000e+00 +7.0999555009487869e+00 -6.1322410471122395e-03 +0.0000000000000000e+00 +9.9998119763310556e-01
7.1999999999999904e+00 +4.6243129166341497e+00 +0.0000000000000000e+00 +7.1999535941056925e+00 -6.2186093837323679e-03 +0.0000000000000000e+00 +9.9998066426173093e-01
7.2999999999999901e+00 +4.6236867372804440e+00 +0.0000000000000000e+00 +7.2999516335524763e+00 -6.3049776842886941e-03 +0.0000000000000000e+00 +9.9998012343066134e-01
7.3999999999999897e+00 +4.6230519210985319e+00 +0.0000000000000000e+00 +7.3999496185431681e+00 -6.3913459476407320e-03 +0.0000000000000000e+00 +9.9997957513990132e-01
7.4999999999999893e+00 +4.6224084680922006e+00 +0.0000000000000000e+00 +7.4999475483318001e+00 -6.4777141724318638e-03 +0.0000000000000000e+00 +9.9997901938945710e-01
7.5999999999999890e+00 +4.6217563782653830e+00 +0.0000000000000000e+00 +7.5999454221724037e+00 -6.5640823570893483e-03 +0.0000000000000000e+00 +9.9997845617933656e-01
7.6999999999999886e+00 +4.6210956516221797e+00 +0.0000000000000000e+00 +7.6999432393190119e+00 -6.6504504998243326e-03 +0.0000000000000000e+00 +9.9997788550954936e-01
7.7999999999999883e+00 +4.6204262881668816e+00 +0.0000000000000000e+00 +7.7999409990256581e+00 -6.7368185986318623e-03 +0.0000000000000000e+00 +9.9997730738010704e-01
7.8999999999999879e+00 +4.6197482879039908e+00 +0.0000000000000000e+00 +7.8999387005463779e+00 -6.8231866512908929e-03 +0.0000000000000000e+00 +9.9997672179102326e-01
7.9999999999999876e+00 +4.6190616508382423e+00 +0.0000000000000000e+00 +7.9999363431352082e+00 -6.9095546553642985e-03 +0.0000000000000000e+00 +9.9997612874231379e-01
8.0999999999999872e+00 +4.6183663769746248e+00 +0.0000000000000000e+00 +8.0999339260461873e+00 -6.9959226082124473e-03 +0.0000000000000000e+00 +9.9997552823399627e-01
8.1999999999999869e+00 +4.6176624663183965e+00 +0.0000000000000000e+00 +8.1999314485333556e+00 -7.0822905071426610e-03 +0.0000000000000000e+00 +9.9997492026608970e-01
8.2999999999999865e+00 +4.6169499188750800e+00 +0.0000000000000000e+00 +8.2999289098507543e+00 -7.1686583495587123e-03 +0.0000000000000000e+00 +9.9997430483861305e-01
8.3999999999999861e+00 +4.6162287346504520e+00 +0.0000000000000000e+00 +8.3999263092524270e+00 -7.2550261329741624e-03 +0.0000000000000000e+00 +9.9997368195158520e-01
8.4999999999999858e+00 +4.6154989136505318e+00 +0.0000000000000000e+00 +8.4999236459924195e+00 -7.3413938550120428e-03 +0.0000000000000000e+00 +9.9997305160502492e-01
8.5999999999999854e+00 +4.6147604558815711e+00 +0.0000000000000000e+00 +8.5999209193247808e+00 -7.4277615134045339e-03 +0.0000000000000000e+00 +9.9997241379895085e-01
8.6999999999999851e+00 +4.6140133613500440e+00 +0.0000000000000000e+00 +8.6999181285035601e+00 -7.5141291059926283e-03 +0.0000000000000000e+00 +9.9997176853338154e-01
8.7999999999999847e+00 +4.6132576300626340e+00 +0.0000000000000000e+00 +8.7999152727828083e+00 -7.6004966307257867e-03 +0.0000000000000000e+00 +9.9997111580833509e-01
8.8999999999999844e+00 +4.6124932620262253e+00 +0.0000000000000000e+00 +8.8999123514165781e+00 -7.6868640856615853e-03 +0.0000000000000000e+00 +9.9997045562382936e-01
8.9999999999999840e+00 +4.6117202572478897e+00 +0.0000000000000000e+00 +8.9999093636589258e+00 -7.7732314689653477e-03 +0.0000000000000000e+00 +9.9996978797988201e-01
9.0999999999999837e+00 +4.6109386157348773e+00 +0.0000000000000000e+00 +9.0999063087639076e+00 -7.8595987789097741e-03 +0.0000000000000000e+00 +9.9996911287651025e-01
9.1999999999999833e+00 +4.6101483374946071e+00 +0.0000000000000000e+00 +9.1999031859855815e+00 -7.9459660138745530e-03 +0.0000000000000000e+00 +9.9996843031373084e-01
9.2999999999999829e+00 +4.6093494225346525e+00 +0.0000000000000000e+00 +9.2998999945780074e+00 -8.0323331723459700e-03 +0.0000000000000000e+00 +9.9996774029155999e-01
9.3999999999999826e+00 +4.6085418708627346e+00 +0.0000000000000000e+00 +9.3998967337952468e+00 -8.1187002529164980e-03 +0.0000000000000000e+00 +9.9996704281001358e-01
9.4999999999999822e+00 +4.6077256824867092e+00 +0.0000000000000000e+00 +9.4998934028913649e+00 -8.2050672542843869e-03 +0.0000000000000000e+00 +9.9996633786910694e-01
9.5999999999999819e+00 +4.6069008574145576e+00 +0.0000000000000000e+00 +9.5998900011204249e+00 -8.2914341752532358e-03 +0.0000000000000000e+00 +9.9996562546885470e-01
9.6999999999999815e+00 +4.6060673956543754e+00 +0.0000000000000000e+00 +9.6998865277364921e+00 -8.3778010147315604e-03 +0.0000000000000000e+00 +9.9996490560927087e-01
9.7999999999999812e+00 +4.6052252972143615e+00 +0.0000000000000000e+00 +9.7998829819936351e+00 -8.4641677717323411e-03 +0.0000000000000000e+00 +9.9996417829036877e-01
9.8999999999999808e+00 +4.6043745621028078e+00 +0.0000000000000000e+00 +9.8998793631459225e+00 -8.5505344453725741e-03 +0.0000000000000000e+00 +9.9996344351216104e-01
9.9999999999999805e+00 +4.6035151903280918e+00 +0.0000000000000000e+00 +9.9998756704474250e+00 -8.6369010348728032e-03 +0.0000000000000000e+00 +9.9996270127465969e-01
1.0099999999999980e+01 +4.6026471818986607e+00 +0.0000000000000000e+00 +1.0099871903152213e+01 -8.7232675395551018e-03 +0.0000000000000000e+00 +9.9996195157787571e-01
1.0199999999999980e+01 +4.6017705368230279e+00 +0.0000000000000000e+00 +1.0199868060514358e+01 -8.8096339588256811e-03 +0.0000000000000000e+00 +9.9996119442181952e-01
1.0299999999999979e+01 +4.6008852551097608e+00 +0.0000000000000000e+00 +1.0299864141787936e+01 -8.8960002921578962e-03 +0.0000000000000000e+00 +9.9996042980650113e-01
1.0399999999999979e+01 +4.5999913367674763e+00 +0.0000000000000000e+00 +1.0399860146227017e+01 -8.9823665390910083e-03 +0.0000000000000000e+00 +9.9995965773192963e-01
1.0499999999999979e+01 +4.5990887818048352e+00 +0.0000000000000000e+00 +1.0499856073085679e+01 -9.0687326992305219e-03 +0.0000000000000000e+00 +9.9995887819811391e-01
1.0599999999999978e+01 +4.5981775902305344e+00 +0.0000000000000000e+00 +1.0599851921617999e+01 -9.1550987722485381e-03 +0.0000000000000000e+00 +9.9995809120506185e-01
1.0699999999999978e+01 +4.5972577620532986e+00 +0.0000000000000000e+00 +1.0699847691078052e+01 -9.2414647578841162e-03 +0.0000000000000000e+00 +9.9995729675278089e-01
1.0799999999999978e+01 +4.5963292972818772e+00 +0.0000000000000000e+00 +1.0799843380719915e+01 -9.3278306559436471e-03 +0.0000000000000000e+00 +9.9995649484127780e-01
1.0899999999999977e+01 +4.5953921959250339e+00 +0.0000000000000000e+00 +1.0899838989797667e+01 -9.4141964663012317e-03 +0.0000000000000000e+00 +9.9995568547055835e-01
1.0999999999999977e+01 +4.5944464579915429e+00 +0.0000000000000000e+00 +1.0999834517565386e+01 -9.5005621888990723e-03 +0.0000000000000000e+00 +9.9995486864062777e-01
1.1099999999999977e+01 +4.5934920834901796e+00 +0.0000000000000000e+00 +1.1099829963277152e+01 -9.5869278237478775e-03 +0.0000000000000000e+00 +9.9995404435149049e-01
1.1199999999999976e+01 +4.5925290724297154e+00 +0.0000000000000000e+00 +1.1199825326187044e+01 -9.6732933709272727e-03 +0.0000000000000000e+00 +9.9995321260314995e-01
1.1299999999999976e+01 +4.5915574248189115e+00 +0.0000000000000000e+00 +1.1299820605549142e+01 -9.7596588305862222e-03 +0.0000000000000000e+00 +9.9995237339560883e-01
1.1399999999999975e+01 +4.5905771406665083e+00 +0.0000000000000000e+00 +1.1399815800617526e+01 -9.8460242029434625e-03 +0.0000000000000000e+00 +9.9995152672886878e-01
1.1499999999999975e+01 +4.5895882199812235e+00 +0.0000000000000000e+00 +1.1499810910646277e+01 -9.9323894882879429e-03 +0.0000000000000000e+00 +9.9995067260293069e-01
1.1599999999999975e+01 +4.5885906627717397e+00 +0.0000000000000000e+00 +1.1599805934889472e+01 -1.0018754686979279e-02 +0.0000000000000000e+00 +9.9994981101779434e-01
1.1699999999999974e+01 +4.5875844690467016e+00 +0.0000000000000000e+00 +1.1699800872601195e+01 -1.0105119799448215e-02 +0.0000000000000000e+00 +9.9994894197345863e-01
1.1799999999999974e+01 +4.5865696388147077e+00 +0.0000000000000000e+00 +1.1799795723035524e+01 -1.0191484826197098e-02 +0.0000000000000000e+00 +9.9994806546992121e-01
