# field on trajectory
# s[mm] rx[mm] ry[mm] rz[mm] bx[T] by[T] bz[T]
0.0000000000000000e+00 +4.6467000000000001e+00 +0.0000000000000000e+00 +0.0000000000000000e+00 +3.0705468306091530e-02 -5.6296501838113022e-01 +4.0127191518210979e-03
1.0000000000000001e-01 +4.6466943741792059e+00 +0.0000000000000000e+00 +9.9999999789000926e-02 +3.0705571882360481e-02 -5.6296500430069996e-01 +4.0126933437830007e-03
2.0000000000000001e-01 +4.6466774967170954e+00 +0.0000000000000000e+00 +1.9999999831200754e-01 +3.0705665001146583e-02 -5.6296498642900206e-01 +4.0126660923666185e-03
3.0000000000000004e-01 +4.6466493676142386e+00 +0.0000000000000000e+00 +2.9999999430302560e-01 +3.0705748358534728e-02 -5.6296496481236469e-01 +4.0126375316986334e-03
4.0000000000000002e-01 +4.6466099868714243e+00 +0.0000000000000000e+00 +3.9999998649606100e-01 +3.0705822650666306e-02 -5.6296493949696824e-01 +4.0126077959028198e-03
5.0000000000000000e-01 +4.6465593544896562e+00 +0.0000000000000000e+00 +4.9999997362512000e-01 +3.0705888573721685e-02 -5.6296491052886377e-01 +4.0125770190994415e-03
5.9999999999999998e-01 +4.6464974704701545e+00 +0.0000000000000000e+00 +5.9999995442420906e-01 +3.0705946823903003e-02 -5.6296487795399275e-01 +4.0125453354046461e-03
6.9999999999999996e-01 +4.6464243348143537e+00 +0.0000000000000000e+00 +6.9999992762733498e-01 +3.0705998097416684e-02 -5.6296484181820527e-01 +4.0125128789298553e-03
7.9999999999999993e-01 +4.6463399475239013e+00 +0.0000000000000000e+00 +7.9999989196850496e-01 +3.0706043090456252e-02 -5.6296480216728129e-01 +4.0124797837811600e-03
8.9999999999999991e-01 +4.6462443086006591e+00 +0.0000000000000000e+00 +8.9999984618172657e-01 +3.0706082499184890e-02 -5.6296475904694665e-01 +4.0124461840587199e-03
9.9999999999999989e-01 +4.6461374180466990e+00 +0.0000000000000000e+00 +9.9999978900100783e-01 +3.0706117019718145e-02 -5.6296471250289537e-01 +4.0124122138561506e-03
1.0999999999999999e+00 +4.6460192758643046e+00 +0.0000000000000000e+00 +1.0999997191603574e+00 +3.0706147348106668e-02 -5.6296466258080735e-01 +4.0123780072599206e-03
1.2000000000000000e+00 +4.6458898820559691e+00 +0.0000000000000000e+00 +1.1999996353937845e+00 +3.0706174180318877e-02 -5.6296460932636672e-01 +4.0123436983487363e-03
1.3000000000000000e+00 +4.6457492366243951e+00 +0.0000000000000000e+00 +1.2999995364352988e+00 +3.0706198212223718e-02 -5.6296455278528290e-01 +4.0123094211929394e-03
1.4000000000000001e+00 +4.6455973395724923e+00 +0.0000000000000000e+00 +1.3999994210189106e+00 +3.0706220139573418e-02 -5.6296449300330864e-01 +4.0122753098538865e-03
1.5000000000000002e+00 +4.6454341909033792e+00 +0.0000000000000000e+00 +1.4999992878786312e+00 +3.0706240657986293e-02 -5.6296443002626029e-01 +4.0122414983833291e-03
1.6000000000000003e+00 +4.6452597906203801e+00 +0.0000000000000000e+00 +1.5999991357484724e+00 +3.0706260462929562e-02 -5.6296436390003535e-01 +4.0122081208228020e-03
1.7000000000000004e+00 +4.6450741387270238e+00 +0.0000000000000000e+00 +1.6999989633624466e+00 +3.0706280249702178e-02 -5.6296429467063336e-01 +4.0121753112029868e-03
1.8000000000000005e+00 +4.6448772352270451e+00 +0.0000000000000000e+00 +1.7999987694545674e+00 +3.0706300713417720e-02 -5.6296422238417476e-01 +4.0121432035430879e-03
1.9000000000000006e+00 +4.6446690801243804e+00 +0.0000000000000000e+00 +1.8999985527588492e+00 +3.0706322548987367e-02 -5.6296414708691955e-01 +4.0121119318501982e-03
2.0000000000000004e+00 +4.6444496734231704e+00 +0.0000000000000000e+00 +1.9999983120093072e+00 +3.0706346451102824e-02 -5.6296406882528816e-01 +4.0120816301186610e-03
2.1000000000000005e+00 +4.6442190151277565e+00 +0.0000000000000000e+00 +2.0999980459399574e+00 +3.0706373016449448e-02 -5.6296398767233269e-01 +4.0120524010704090e-03
2.2000000000000006e+00 +4.6439771052426808e+00 +0.0000000000000000e+00 +2.1999977532848169e+00 +3.0706402450434205e-02 -5.6296390380708516e-01 +4.0120242223784163e-03
2.3000000000000007e+00 +4.6437239437726818e+00 +0.0000000000000000e+00 +2.2999974327779045e+00 +3.0706434860630426e-02 -5.6296381743513280e-01 +4.0119970404603380e-03
2.4000000000000008e+00 +4.6434595307226898e+00 +0.0000000000000000e+00 +2.3999970831532389e+00 +3.0706470354583699e-02 -5.6296372876215861e-01 +4.0119708017443464e-03
2.5000000000000009e+00 +4.6431838660978242e+00 +0.0000000000000000e+00 +2.4999967031448405e+00 +3.0706509039820747e-02 -5.6296363799394511e-01 +4.0119454526710788e-03
2.6000000000000010e+00 +4.6428969499033892e+00 +0.0000000000000000e+00 +2.5999962914867307e+00 +3.0706551023858223e-02 -5.6296354533638049e-01 +4.0119209396955588e-03
2.7000000000000011e+00 +4.6425987821448684e+00 +0.0000000000000000e+00 +2.6999958469129317e+00 +3.0706596414211453e-02 -5.6296345099546274e-01 +4.0118972092891662e-03
2.8000000000000012e+00 +4.6422893628279214e+00 +0.0000000000000000e+00 +2.7999953681574676e+00 +3.0706645318403183e-02 -5.6296335517730511e-01 +4.0118742079415601e-03
2.9000000000000012e+00 +4.6419686919583807e+00 +0.0000000000000000e+00 +2.8999948539543632e+00 +3.0706697843972314e-02 -5.6296325808814029e-01 +4.0118518821626288e-03
3.0000000000000013e+00 +4.6416367695422460e+00 +0.0000000000000000e+00 +2.9999943030376444e+00 +3.0706754098482628e-02 -5.6296315993432677e-01 +4.0118301784844330e-03
3.1000000000000014e+00 +4.6412935955856804e+00 +0.0000000000000000e+00 +3.0999937141413385e+00 +3.0706814189531390e-02 -5.6296306092235271e-01 +4.0118090434631591e-03
3.2000000000000015e+00 +4.6409391700950069e+00 +0.0000000000000000e+00 +3.1999930859994743e+00 +3.0706878224758032e-02 -5.6296296125884027e-01 +4.0117884236810517e-03
3.3000000000000016e+00 +4.6405734930767046e+00 +0.0000000000000000e+00 +3.2999924173460808e+00 +3.0706946311852723e-02 -5.6296286115055139e-01 +4.0117682657483753e-03
3.4000000000000017e+00 +4.6401965645374030e+00 +0.0000000000000000e+00 +3.3999917069151890e+00 +3.0707018558564930e-02 -5.6296276080439211e-01 +4.0117485163053551e-03
3.5000000000000018e+00 +4.6398083844838789e+00 +0.0000000000000000e+00 +3.4999909534408316e+00 +3.0707095072711941e-02 -5.6296266042741683e-01 +4.0117291220241368e-03
3.6000000000000019e+00 +4.6394089529230529e+00 +0.0000000000000000e+00 +3.5999901556570411e+00 +3.0707175962187326e-02 -5.6296256022683400e-01 +4.0117100296107313e-03
3.7000000000000020e+00 +4.6389982698619843e+00 +0.0000000000000000e+00 +3.6999893122978524e+00 +3.0707261334969402e-02 -5.6296246041000919e-01 +4.0116911858069718e-03
3.8000000000000020e+00 +4.6385763353078655e+00 +0.0000000000000000e+00 +3.7999884220973010e+00 +3.0707351299129548e-02 -5.6296236118447085e-01 +4.0116725373924786e-03
3.9000000000000021e+00 +4.6381431492680223e+00 +0.0000000000000000e+00 +3.8999874837894239e+00 +3.0707445962840578e-02 -5.6296226275791417e-01 +4.0116540311866027e-03
4.0000000000000018e+00 +4.6376987117499047e+00 +0.0000000000000000e+00 +3.9999864961082596e+00 +3.0707545434385055e-02 -5.6296216533820564e-01 +4.0116356140504055e-03
4.1000000000000014e+00 +4.6372430227610870e+00 +0.0000000000000000e+00 +4.0999854577878470e+00 +3.0707649693978906e-02 -5.6296206914612690e-01 +4.0116172280678323e-03
4.2000000000000011e+00 +4.6367760823092592e+00 +0.0000000000000000e+00 +4.1999843675622266e+00 +3.0707758209048381e-02 -5.6296197445360874e-01 +4.0115987960626289e-03
4.3000000000000007e+00 +4.6362978904022247e+00 +0.0000000000000000e+00 +4.2999832241654410e+00 +3.0707870318950385e-02 -5.6296188154548932e-01 +4.0115802360392401e-03
4.4000000000000004e+00 +4.6358084470478946e+00 +0.0000000000000000e+00 +4.3999820263315321e+00 +3.0707985363281856e-02 -5.6296179070676133e-01 +4.0115614660031877e-03
4.5000000000000000e+00 +4.6353077522542794e+00 +0.0000000000000000e+00 +4.4999807727945447e+00 +3.0708102681893345e-02 -5.6296170222257980e-01 +4.0115424039603815e-03
4.5999999999999996e+00 +4.6347958060294863e+00 +0.0000000000000000e+00 +4.5999794622885233e+00 +3.0708221614902637e-02 -5.6296161637825870e-01 +4.0115229679164310e-03
4.6999999999999993e+00 +4.6342726083817114e+00 +0.0000000000000000e+00 +4.6999780935475135e+00 +3.0708341502708281e-02 -5.6296153345927824e-01 +4.0115030758759631e-03
4.7999999999999989e+00 +4.6337381593192353e+00 +0.0000000000000000e+00 +4.7999766653055627e+00 +3.0708461686003167e-02 -5.6296145375128503e-01 +4.0114826458419626e-03
4.8999999999999986e+00 +4.6331924588504156e+00 +0.0000000000000000e+00 +4.8999751762967199e+00 +3.0708581505787976e-02 -5.6296137754009468e-01 +4.0114615958150935e-03
4.9999999999999982e+00 +4.6326355069836840e+00 +0.0000000000000000e+00 +4.9999736252550324e+00 +3.0708700303384674e-02 -5.6296130511169540e-01 +4.0114398437930479e-03
5.0999999999999979e+00 +4.6320673037275393e+00 +0.0000000000000000e+00 +5.0999720109145512e+00 +3.0708817420449900e-02 -5.6296123675224863e-01 +4.0114173077699022e-03
5.1999999999999975e+00 +4.6314878490905391e+00 +0.0000000000000000e+00 +5.1999703320093271e+00 +3.0708932198988365e-02 -5.6296117274809321e-01 +4.0113939057354669e-03
5.2999999999999972e+00 +4.6308971430812989e+00 +0.0000000000000000e+00 +5.2999685872734110e+00 +3.0709043981366167e-02 -5.6296111338574562e-01 +4.0113695556746737e-03
5.3999999999999968e+00 +4.6302951857084826e+00 +0.0000000000000000e+00 +5.3999667754408547e+00 +3.0709152110324132e-02 -5.6296105895190507e-01 +4.0113441755669282e-03
5.4999999999999964e+00 +4.6296819769807982e+00 +0.0000000000000000e+00 +5.4999648952457116e+00 +3.0709255928991045e-02 -5.6296100973345287e-01 +4.0113176833855204e-03
5.5999999999999961e+00 +4.6290575169069923e+00 +0.0000000000000000e+00 +5.5999629454220345e+00 +3.0709354780896848e-02 -5.6296096601745604e-01 +4.0112899970970060e-03
5.6999999999999957e+00 +4.6284218054958437e+00 +0.0000000000000000e+00 +5.6999609247038778e+00 +3.0709448009985849e-02 -5.6296092809116927e-01 +4.0112610346606219e-03
5.7999999999999954e+00 +4.6277748427561578e+00 +0.0000000000000000e+00 +5.7999588318252950e+00 +3.0709534960629805e-02 -5.6296089624203660e-01 +4.0112307140277000e-03
5.8999999999999950e+00 +4.6271166286967604e+00 +0.0000000000000000e+00 +5.8999566655203415e+00 +3.0709614977641030e-02 -5.6296087075769463e-01 +4.0111989531410935e-03
5.9999999999999947e+00 +4.6264471633264934e+00 +0.0000000000000000e+00 +5.9999544245230725e+00 +3.0709687406285376e-02 -5.6296085192597256e-01 +4.0111656699346092e-03
6.0999999999999943e+00 +4.6257664466542083e+00 +0.0000000000000000e+00 +6.0999521075675425e+00 +3.0709751805863068e-02 -5.6296083981297729e-01 +4.0111308103281621e-03
6.1999999999999940e+00 +4.6250744786887665e+00 +0.0000000000000000e+00 +6.1999497133878068e+00 +3.0709808591268446e-02 -5.6296083359598170e-01 +4.0110944323785234e-03
6.2999999999999936e+00 +4.6243712594390542e+00 +0.0000000000000000e+00 +6.2999472407179216e+00 +3.0709858391128712e-02 -5.6296083222952653e-01 +4.0110566222349231e-03
6.3999999999999932e+00 +4.6236567889140030e+00 +0.0000000000000000e+00 +6.3999446882919422e+00 +3.0709901833546625e-02 -5.6296083466789859e-01 +4.0110174660699235e-03
6.4999999999999929e+00 +4.6229310671226109e+00 +0.0000000000000000e+00 +6.4999420548439257e+00 +3.0709939546075649e-02 -5.6296083986511691e-01 +4.0109770500799452e-03
6.5999999999999925e+00 +4.6221940940739641e+00 +0.0000000000000000e+00 +6.5999393391079284e+00 +3.0709972155695167e-02 -5.6296084677491987e-01 +4.0109354604857582e-03
6.6999999999999922e+00 +4.6214458697772551e+00 +0.0000000000000000e+00 +6.6999365398180082e+00 +3.0710000288785774e-02 -5.6296085435075205e-01 +4.0108927835329619e-03
6.7999999999999918e+00 +4.6206863942418064e+00 +0.0000000000000000e+00 +6.7999336557082239e+00 +3.0710024571104735e-02 -5.6296086154575109e-01 +4.0108491054924502e-03
6.8999999999999915e+00 +4.6199156674770911e+00 +0.0000000000000000e+00 +6.8999306855126354e+00 +3.0710045627761612e-02 -5.6296086731273542e-01 +4.0108045126608519e-03
6.9999999999999911e+00 +4.6191336894927533e+00 +0.0000000000000000e+00 +6.9999276279653033e+00 +3.0710064083193888e-02 -5.6296087060419198e-01 +4.0107590913609509e-03
7.0999999999999908e+00 +4.6183404602986275e+00 +0.0000000000000000e+00 +7.0999244818002909e+00 +3.0710080561142949e-02 -5.6296087037226394e-01 +4.0107129279421021e-03
7.1999999999999904e+00 +4.6175359799047637e+00 +0.0000000000000000e+00 +7.1999212457516615e+00 +3.0710095684629953e-02 -5.6296086556873803e-01 +4.0106661087806013e-03
7.2999999999999901e+00 +4.6167202483214433e+00 +0.0000000000000000e+00 +7.2999179185534810e+00 +3.0710110075932009e-02 -5.6296085514503458e-01 +4.0106187202800523e-03
7.3999999999999897e+00 +4.6158932655592029e+00 +0.0000000000000000e+00 +7.3999144989398182e+00 +3.0710124356558458e-02 -5.6296083805219344e-01 +4.0105708488717088e-03
7.4999999999999893e+00 +4.6150550316288559e+00 +0.0000000000000000e+00 +7.4999109856447435e+00 +3.0710139147227328e-02 -5.6296081324086467e-01 +4.0105225810148012e-03
7.5999999999999890e+00 +4.6142055465415117e+00 +0.0000000000000000e+00 +7.5999073774023289e+00 +3.0710155067841863e-02 -5.6296077966129698e-01 +4.0104740031968178e-03
7.6999999999999886e+00 +4.6133448103085977e+00 +0.0000000000000000e+00 +7.6999036729466521e+00 +3.0710172737467286e-02 -5.6296073626332632e-01 +4.0104252019337854e-03
7.7999999999999883e+00 +4.6124728229418785e+00 +0.0000000000000000e+00 +7.7998998710117906e+00 +3.0710192774307737e-02 -5.6296068199636584e-01 +4.0103762637705266e-03
7.8999999999999879e+00 +4.6115895844534807e+00 +0.0000000000000000e+00 +7.8998959703318281e+00 +3.0710215795683282e-02 -5.6296061580939583e-01 +4.0103272752808738e-03
7.9999999999999876e+00 +4.6106950948559104e+00 +0.0000000000000000e+00 +7.9998919696408510e+00 +3.0710242418007232e-02 -5.6296053665095236e-01 +4.0102783230678805e-03
8.0999999999999872e+00 +4.6097893541620749e+00 +0.0000000000000000e+00 +8.0998878676729493e+00 +3.0710273130437383e-02 -5.6296044372611276e-01 +4.0102294891485677e-03
8.1999999999999869e+00 +4.6088723623852967e+00 +0.0000000000000000e+00 +8.1998836631622183e+00 +3.0710307914701862e-02 -5.6296033727084271e-01 +4.0101808369886480e-03
8.2999999999999865e+00 +4.6079441195393125e+00 +0.0000000000000000e+00 +8.2998793548427550e+00 +3.0710346625710188e-02 -5.6296021777940630e-01 +4.0101324252727784e-03
8.3999999999999861e+00 +4.6070046256382602e+00 +0.0000000000000000e+00 +8.3998749414486653e+00 +3.0710389118832900e-02 -5.6296008574570044e-01 +4.0100843125307050e-03
8.4999999999999858e+00 +4.6060538806966713e+00 +0.0000000000000000e+00 +8.4998704217140570e+00 +3.0710435249918320e-02 -5.6295994166324337e-01 +4.0100365571326202e-03
8.5999999999999854e+00 +4.6050918847294611e+00 +0.0000000000000000e+00 +8.5998657943730414e+00 +3.0710484875309044e-02 -5.6295978602516517e-01 +4.0099892172845699e-03
8.6999999999999851e+00 +4.6041186377519177e+00 +0.0000000000000000e+00 +8.6998610581597369e+00 +3.0710537851858476e-02 -5.6295961932419647e-01 +4.0099423510238643e-03
8.7999999999999847e+00 +4.6031341397796925e+00 +0.0000000000000000e+00 +8.7998562118082653e+00 +3.0710594036947075e-02 -5.6295944205265802e-01 +4.0098960162145234e-03
8.8999999999999844e+00 +4.6021383908287916e+00 +0.0000000000000000e+00 +8.8998512540527539e+00 +3.0710653288498656e-02 -5.6295925470244990e-01 +4.0098502705427546e-03
8.9999999999999840e+00 +4.6011313909155644e+00 +0.0000000000000000e+00 +8.9998461836273336e+00 +3.0710715464996378e-02 -5.6295905776504029e-01 +4.0098051715124440e-03
9.0999999999999837e+00 +4.6001131400566937e+00 +0.0000000000000000e+00 +9.0998409992661387e+00 +3.0710780425498792e-02 -5.6295885173145488e-01 +4.0097607764406967e-03
9.1999999999999833e+00 +4.5990836382691871e+00 +0.0000000000000000e+00 +9.1998356997033106e+00 +3.0710848029655579e-02 -5.6295863709226512e-01 +4.0097171424533680e-03
9.2999999999999829e+00 +4.5980428855703668e+00 +0.0000000000000000e+00 +9.2998302836729945e+00 +3.0710918137723291e-02 -5.6295841433757787e-01 +4.0096743264806797e-03
9.3999999999999826e+00 +4.5969908819778595e+00 +0.0000000000000000e+00 +9.3998247499093406e+00 +3.0710990610580878e-02 -5.6295818395702357e-01 +4.0096323852528036e-03
9.4999999999999822e+00 +4.5959276275095862e+00 +0.0000000000000000e+00 +9.4998190971465029e+00 +3.0711065309745097e-02 -5.6295794643974451e-01 +4.0095913752955280e-03
9.5999999999999819e+00 +4.5948531221837534e+00 +0.0000000000000000e+00 +9.5998133241186387e+00 +3.0711142097385812e-02 -5.6295770227438413e-01 +4.0095513529259238e-03
9.6999999999999815e+00 +4.5937673660188434e+00 +0.0000000000000000e+00 +9.6998074295599128e+00 +3.0711220836341039e-02 -5.6295745194907532e-01 +4.0095123742480499e-03
9.7999999999999812e+00 +4.5926703590336029e+00 +0.0000000000000000e+00 +9.7998014122044932e+00 +3.0711301390132020e-02 -5.6295719595142790e-01 +4.0094744951487014e-03
9.8999999999999808e+00 +4.5915621012470353e+00 +0.0000000000000000e+00 +9.8997952707865533e+00 +3.0711383622977931e-02 -5.6295693476851771e-01 +4.0094377712931745e-03
9.9999999999999805e+00 +4.5904425926783894e+00 +0.0000000000000000e+00 +9.9997890040402684e+00 +3.0711467399810628e-02 -5.6295666888687446e-01 +4.0094022581210770e-03
1.0099999999999980e+01 +4.5893118333471508e+00 +0.0000000000000000e+00 +1.0099782610699821e+01 +3.0711552541632541e-02 -5.6295639883597981e-01 +4.0093679955932162e-03
1.0199999999999980e+01 +4.5881698232730299e+00 +0.0000000000000000e+00 +1.0199776089499395e+01 +3.0711638690173057e-02 -5.6295612532036499e-01 +4.0093349621866999e-03
1.0299999999999979e+01 +4.5870165624759487e+00 +0.0000000000000000e+00 +1.0299769439173183e+01 +3.0711725441983674e-02 -5.6295584908934893e-01 +4.0093031210692003e-03
1.0399999999999979e+01 +4.5858520509760270e+00 +0.0000000000000000e+00 +1.0399762658455376e+01 +3.0711812393598058e-02 -5.6295557089310844e-01 +4.0092724355802007e-03
1.0499999999999979e+01 +4.5846762887935650e+00 +0.0000000000000000e+00 +1.0499755746080176e+01 +3.0711899141529778e-02 -5.6295529148270052e-01 +4.0092428692357638e-03
1.0599999999999978e+01 +4.5834892759490300e+00 +0.0000000000000000e+00 +1.0599748700781781e+01 +3.0711985282270073e-02 -5.6295501161008044e-01 +4.0092143857332714e-03
1.0699999999999978e+01 +4.5822910124630409e+00 +0.0000000000000000e+00 +1.0699741521294399e+01 +3.0712070412285623e-02 -5.6295473202812141e-01 +4.0091869489561347e-03
1.0799999999999978e+01 +4.5810814983563537e+00 +0.0000000000000000e+00 +1.0799734206352237e+01 +3.0712154128016200e-02 -5.6295445349063533e-01 +4.0091605229784950e-03
1.0899999999999977e+01 +4.5798607336498449e+00 +0.0000000000000000e+00 +1.0899726754689510e+01 +3.0712236025872461e-02 -5.6295417675239012e-01 +4.0091350720698618e-03
1.0999999999999977e+01 +4.5786287183644987e+00 +0.0000000000000000e+00 +1.0999719165040432e+01 +3.0712315702233591e-02 -5.6295390256912992e-01 +4.0091105606997624e-03
1.1099999999999977e+01 +4.5773854525213897e+00 +0.0000000000000000e+00 +1.1099711436139222e+01 +3.0712392753444992e-02 -5.6295363169759294e-01 +4.0090869535423347e-03
1.1199999999999976e+01 +4.5761309361416691e+00 +0.0000000000000000e+00 +1.1199703566720100e+01 +3.0712466775815992e-02 -5.6295336489552938e-01 +4.0090642154809054e-03
1.1299999999999976e+01 +4.5748651692465492e+00 +0.0000000000000000e+00 +1.1299695555517291e+01 +3.0712537365617389e-02 -5.6295310292172074e-01 +4.0090423116125283e-03
1.1399999999999975e+01 +4.5735881518572876e+00 +0.0000000000000000e+00 +1.1399687401265021e+01 +3.0712604119079175e-02 -5.6295284653599653e-01 +4.0090212072525057e-03
1.1499999999999975e+01 +4.5722998839951741e+00 +0.0000000000000000e+00 +1.1499679102697520e+01 +3.0712666632388128e-02 -5.6295259649925167e-01 +4.0090008679388627e-03
1.1599999999999975e+01 +4.5710003656815124e+00 +0.0000000000000000e+00 +1.1599670658549018e+01 +3.0712724501685343e-02 -5.6295235357346374e-01 +4.0089812594367958e-03
1.1699999999999974e+01 +4.5696895969376063e+00 +0.0000000000000000e+00 +1.1699662067553744e+01 +3.0712777323063909e-02 -5.6295211852171056e-01 +4.0089623477431082e-03
1.1799999999999974e+01 +4.5683675777847466e+00 +0.0000000000000000e+00 +1.1799653328445935e+01 +3.0712824692566407e-02 -5.6295189210818553e-01 +4.0089440990905747e-03
