# multipoles
# s[mm] polynom_b[n=0][T/m^n] polynom_b[n=1][T/m^n] polynom_b[n=2][T/m^n] polynom_b[n=3][T/m^n] polynom_b[n=4][T/m^n] polynom_b[n=5][T/m^n] polynom_b[n=6][T/m^n] 
+0.0000000000000000e+00 -8.6242992845229446e-02 +3.5134698306252791e-04 -8.9699215210706559e-03 -3.5141371672288955e+00 +1.0203426253837971e+03 +2.3476895248555902e+04 -4.1593410981699722e+06 
+1.0000000000000001e-01 -8.6243008814824176e-02 +3.5809621401795290e-04 -9.4369664622860928e-03 -3.6395912834421944e+00 +1.0295614254852292e+03 +2.4043454266172910e+04 -4.1966988376998976e+06 
+2.0000000000000001e-01 -8.6243021950590207e-02 +3.6434448833767125e-04 -9.9152950778904139e-03 -3.7633543765008808e+00 +1.0381400966310939e+03 +2.4608410602185249e+04 -4.2307800938222706e+06 
+3.0000000000000004e-01 -8.6243032292093111e-02 +3.7007503183078110e-04 -1.0407043382909278e-02 -3.8845933197302949e+00 +1.0461404790443823e+03 +2.5167565645311159e+04 -4.2618299557955451e+06 
+4.0000000000000002e-01 -8.6243039878895728e-02 +3.7527107021857362e-04 -1.0914347224244107e-02 -4.0024749555147414e+00 +1.0536244093614544e+03 +2.5716720565781998e+04 -4.2900934980273806e+06 
+5.0000000000000000e-01 -8.6243044750553402e-02 +3.7991583004521039e-04 -1.1439342818976909e-02 -4.1161661234595801e+00 +1.0606537299353745e+03 +2.6251676476831035e+04 -4.3158158213546537e+06 
+5.9999999999999998e-01 -8.6243046946612459e-02 +3.8399253846510903e-04 -1.1984167061122394e-02 -4.2248336553961661e+00 +1.0672902950025257e+03 +2.6768234403830244e+04 -4.3392420829655286e+06 
+6.9999999999999996e-01 -8.6243046506612284e-02 +3.8748442306724075e-04 -1.2550957204995779e-02 -4.3276443736508607e+00 +1.0735959641139577e+03 +2.7262195278096624e+04 -4.3606174638656154e+06 
+7.9999999999999993e-01 -8.6243043470083908e-02 +3.9037471248193920e-04 -1.3141851048902630e-02 -4.4237651094646990e+00 +1.0796326050493190e+03 +2.7729360039762068e+04 -4.3801871808263017e+06 
+8.9999999999999991e-01 -8.6243037876550688e-02 +3.9264663585127151e-04 -1.3758986944148862e-02 -4.5123626903633971e+00 +1.0854620943554519e+03 +2.8165529567506434e+04 -4.3981964897959754e+06 
+9.9999999999999989e-01 -8.6243029765524115e-02 +3.9428342310086402e-04 -1.4404504263106433e-02 -4.5926039494070556e+00 +1.0911463253573213e+03 +2.8566504729711989e+04 -4.4148907212562785e+06 
+1.0999999999999999e+00 -8.6243019176507132e-02 +3.9526830540596869e-04 -1.5080543009271861e-02 -4.6636557421932068e+00 +1.0967472005943478e+03 +2.8928086487188259e+04 -4.4305152439993788e+06 
+1.2000000000000000e+00 -8.6243006148994730e-02 +3.9558451459129030e-04 -1.5789243825417302e-02 -4.7246849291949093e+00 +1.1023266321733313e+03 +2.9246075784809091e+04 -4.4453154670140892e+06 
+1.3000000000000000e+00 -8.6242990722467050e-02 +3.9521528354362150e-04 -1.6532748772114730e-02 -4.7748583921239005e+00 +1.1079465554671490e+03 +2.9516273653018066e+04 -4.4595369012866896e+06 
+1.4000000000000001e+00 -8.6242972936397308e-02 +3.9414384644948864e-04 -1.7313200439306686e-02 -4.8133430410841704e+00 +1.1136689126424076e+03 +2.9734481243695260e+04 -4.4734250829289546e+06 
+1.5000000000000002e+00 -8.6242952830243691e-02 +3.9235343859045417e-04 -1.8132742914024683e-02 -4.8393058110124141e+00 +1.1195556703262162e+03 +2.9896499811228026e+04 -4.4872256544968626e+06 
+1.6000000000000003e+00 -8.6242930443453644e-02 +3.8982729627838933e-04 -1.8993521323896347e-02 -4.8519136631904187e+00 +1.1256688109233635e+03 +2.9998130725257419e+04 -4.5011843237754488e+06 
+1.7000000000000004e+00 -8.6242905815463178e-02 +3.8654865721522654e-04 -1.9897681852506021e-02 -4.8503335951875277e+00 +1.1320703322896959e+03 +3.0035175520764740e+04 -4.5155468605951555e+06 
+1.8000000000000005e+00 -8.6242878985693466e-02 +3.8250076056209846e-04 -2.0847372287334576e-02 -4.8337326474304652e+00 +1.1388222583597269e+03 +3.0003435944014185e+04 -4.5305591472562253e+06 
+1.9000000000000006e+00 -8.6242849993553986e-02 +3.7766684680843134e-04 -2.1844741560361956e-02 -4.8012778999119767e+00 +1.1459866296522250e+03 +2.9898713928110570e+04 -4.5464671317550885e+06 
+2.0000000000000004e+00 -8.6242818878438446e-02 +3.7203015791049292e-04 -2.2891940305364400e-02 -4.7521364784197324e+00 +1.1536255136786986e+03 +2.9716811618630552e+04 -4.5635168770721881e+06 
+2.1000000000000005e+00 -8.6242785726786994e-02 +3.6559097725046664e-04 -2.3989092674917407e-02 -4.6859385553459276e+00 +1.1617727699244599e+03 +2.9455867941511297e+04 -4.5818591407673405e+06 
+2.2000000000000006e+00 -8.6242750816823963e-02 +3.5841870340062881e-04 -2.5128425006688521e-02 -4.6041883042887228e+00 +1.1703586952480875e+03 +2.9123593588529195e+04 -4.6013126203463236e+06 
+2.3000000000000007e+00 -8.6242714475631740e-02 +3.5060029461363390e-04 -2.6300241861434561e-02 -4.5088654168009787e+00 +1.1792900322878825e+03 +2.8730155478837311e+04 -4.6216256677998351e+06 
+2.4000000000000008e+00 -8.6242677030309106e-02 +3.4222270718197811e-04 -2.7494845946402356e-02 -4.4019495500331214e+00 +1.1884734905333316e+03 +2.8285720395065699e+04 -4.6425464874945944e+06 
+2.5000000000000009e+00 -8.6242638807961791e-02 +3.3337289430668385e-04 -2.8702539304652604e-02 -4.2854202972686339e+00 +1.1978157686448824e+03 +2.7800454823480897e+04 -4.6638232406672165e+06 
+2.6000000000000010e+00 -8.6242600135712194e-02 +3.2413780637790266e-04 -2.9913622189202443e-02 -4.1612571983306452e+00 +1.2072235341877731e+03 +2.7284525021434150e+04 -4.6852039530481454e+06 
+2.7000000000000011e+00 -8.6242561340697438e-02 +3.1460439021931190e-04 -3.1118393345535747e-02 -4.0314397205860448e+00 +1.2166034291294466e+03 +2.6748096918057920e+04 -4.7064365411700364e+06 
+2.8000000000000012e+00 -8.6242522750072173e-02 +3.0485958881857391e-04 -3.2307149669922527e-02 -3.8979472550831851e+00 +1.2258620635544873e+03 +2.6201336103489404e+04 -4.7272687834115466e+06 
+2.9000000000000012e+00 -8.6242484691011090e-02 +2.9499034135259877e-04 -3.3470186045374904e-02 -3.7627591194921770e+00 +1.2349060140198173e+03 +2.5654407854627771e+04 -4.7474483164192475e+06 
+3.0000000000000013e+00 -8.6242447490712359e-02 +2.8508358183443599e-04 -3.4597794879188598e-02 -3.6278545223989087e+00 +1.2436418143578453e+03 +2.5117476939435728e+04 -4.7667225905696750e+06 
+3.1000000000000014e+00 -8.6242411476395095e-02 +2.7522624030032694e-04 -3.5680266495675794e-02 -3.4952126005974589e+00 +1.2519759638567909e+03 +2.4600707841945190e+04 -4.7848389107274972e+06 
+3.2000000000000015e+00 -8.6242376975307664e-02 +2.6550524101492116e-04 -3.6707888199104567e-02 -3.3668123707142597e+00 +1.2598149105441421e+03 +2.4114264494975661e+04 -4.8015443604224185e+06 
+3.3000000000000016e+00 -8.6242344314725675e-02 +2.5600750256627456e-04 -3.7670944484233290e-02 -3.2446327338250991e+00 +1.2670650546899567e+03 +2.3668310313319063e+04 -4.8165858170969924e+06 
+3.4000000000000017e+00 -8.6242313821955061e-02 +2.4681993831701790e-04 -3.8559716811590594e-02 -3.1306524931131126e+00 +1.2736327460475386e+03 +2.3273008309860008e+04 -4.8297099432716649e+06 
+3.5000000000000018e+00 -8.6242285824331535e-02 +2.3802945496523308e-04 -3.9364483657386040e-02 -3.0268503138399510e+00 +1.2794242846870829e+03 +2.2938520870723787e+04 -4.8406631904693320e+06 
+3.6000000000000019e+00 -8.6242260649230545e-02 +2.2972295250638211e-04 -4.0075519320157925e-02 -2.9352047257008582e+00 +1.2843458989229596e+03 +2.2675009780035329e+04 -4.8491916964943791e+06 
+3.7000000000000020e+00 -8.6242238624060413e-02 +2.2198732430026523e-04 -4.0683094907350420e-02 -2.8576941296365965e+00 +1.2883037648727657e+03 +2.2492636274621371e+04 -4.8550413802297721e+06 
+3.8000000000000020e+00 -8.6242220076267043e-02 +2.1490945623554308e-04 -4.1177477701988374e-02 -2.7962967734432032e+00 +1.2912039945935471e+03 +2.2401560903399019e+04 -4.8579578863476086e+06 
+3.9000000000000021e+00 -8.6242205333340857e-02 +2.0857622666595267e-04 -4.1548930409731066e-02 -2.7529907554048840e+00 +1.2929526223757168e+03 +2.2411943566164828e+04 -4.8576865220761914e+06 
+4.0000000000000018e+00 -8.6242194722812388e-02 +2.0307450567160539e-04 -4.1787711779588177e-02 -2.7297539986005313e+00 +1.2934556181413504e+03 +2.2533943346294007e+04 -4.8539723265407970e+06 
+4.1000000000000014e+00 -8.6242188458104371e-02 +1.9846944979318027e-04 -4.1887938245127654e-02 -2.7280100084407253e+00 +1.2926586226848349e+03 +2.2774637190069348e+04 -4.8466836656399649e+06 
+4.2000000000000011e+00 -8.6242186285592881e-02 +1.9473229004080811e-04 -4.1858765933929912e-02 -2.7467974136055222e+00 +1.2906478546511569e+03 +2.3127847158721594e+04 -4.8360613994794153e+06 
+4.3000000000000007e+00 -8.6242187832145795e-02 +1.9180877370156561e-04 -4.1712989197272787e-02 -2.7845083582204531e+00 +1.2875395153249299e+03 +2.3583791246891346e+04 -4.8224055110753505e+06 
+4.4000000000000004e+00 -8.6242192724613947e-02 +1.8964465230311388e-04 -4.1463404485151532e-02 -2.8395350480516441e+00 +1.2834498420707991e+03 +2.4132687578064353e+04 -4.8060161259529814e+06 
+4.5000000000000000e+00 -8.6242200589836060e-02 +1.8818568347589483e-04 -4.1122810047700263e-02 -2.9102698097293427e+00 +1.2784951059866962e+03 +2.4764754803701671e+04 -4.7871935139672179e+06 
+4.5999999999999996e+00 -8.6242211054631715e-02 +1.8737763107529770e-04 -4.0704006694368029e-02 -2.9951050912367827e+00 +1.2727916252247499e+03 +2.5470212097056974e+04 -4.7662381486055404e+06 
+4.6999999999999993e+00 -8.6242223745805785e-02 +1.8716626574214745e-04 -4.0219797289144744e-02 -3.0924334737709152e+00 +1.2664557556894695e+03 +2.6239279208482203e+04 -4.7434506626743060e+06 
+4.7999999999999989e+00 -8.6242238290143533e-02 +1.8749736580836774e-04 -3.9682987335832497e-02 -3.2006476922531402e+00 +1.2596039016748466e+03 +2.7062176566820108e+04 -4.7191318965216624e+06 
+4.8999999999999986e+00 -8.6242254314408032e-02 +1.8831671696778923e-04 -3.9106385321451061e-02 -3.3181406228903323e+00 +1.2523525225511078e+03 +2.7929125199087724e+04 -4.6935829290818814e+06 
+4.9999999999999982e+00 -8.6242271445342411e-02 +1.8957011361913370e-04 -3.8502802420281930e-02 -3.4433053171373613e+00 +1.2448181265797750e+03 +2.8830346911310189e+04 -4.6671050462407218e+06 
+5.0999999999999979e+00 -8.6242289309663114e-02 +1.9120335861144867e-04 -3.7885053344107182e-02 -3.5745349900027610e+00 +1.2371172872210705e+03 +2.9756064208752799e+04 -4.6399998174210843e+06 
+5.1999999999999975e+00 -8.6242307534064880e-02 +1.9316226419506690e-04 -3.7265955669913281e-02 -3.7102230428013336e+00 +1.2293666296387798e+03 +3.0696500412439764e+04 -4.6125690289461343e+06 
+5.2999999999999972e+00 -8.6242325745214024e-02 +1.9539265233032297e-04 -3.6658330744922835e-02 -3.8487630686475707e+00 +1.2216828484398345e+03 +3.1641879680770515e+04 -4.5851147684711283e+06 
+5.3999999999999968e+00 -8.6242343569747706e-02 +1.9784035521416948e-04 -3.6075003726331725e-02 -3.9885488619826286e+00 +1.2141827075824374e+03 +3.2582427047688958e+04 -4.5579394213058297e+06 
+5.4999999999999964e+00 -8.6242360634278273e-02 +2.0045121564095657e-04 -3.5528803075438813e-02 -4.1279744263731954e+00 +1.2069830311509570e+03 +3.3508368459097903e+04 -4.5313456269391812e+06 
+5.5999999999999961e+00 -8.6242376565380835e-02 +2.0317108748695926e-04 -3.5032562062657605e-02 -4.2654339828767558e+00 +1.2002007312420305e+03 +3.4409930805279917e+04 -4.5056364081480559e+06 
+5.6999999999999957e+00 -8.6242390989601944e-02 +2.0594583639340223e-04 -3.4599117690018250e-02 -4.3993219855851846e+00 +1.1939527874195126e+03 +3.5277341996780007e+04 -4.4811150725838514e+06 
+5.7999999999999954e+00 -8.6242403533452971e-02 +2.0872134005085524e-04 -3.4241311557503103e-02 -4.5280331259397668e+00 +1.1883562633382674e+03 +3.6100830978268779e+04 -4.4580852910862053e+06 
+5.8999999999999950e+00 -8.6242413823408387e-02 +2.1144348874503415e-04 -3.3971990038918681e-02 -4.6499623442845230e+00 +1.1835283095673894e+03 +3.6870627782757547e+04 -4.4368511084880671e+06 
+5.9999999999999947e+00 -8.6242421485910215e-02 +2.1405818668166778e-04 -3.3804003642265761e-02 -4.7635048798499922e+00 +1.1795861493299585e+03 +3.7576963961045105e+04 -4.4177168585722428e+06 
+6.0999999999999943e+00 -8.6242426251434690e-02 +2.1652238644475768e-04 -3.3745734217556535e-02 -4.8673838974324308e+00 +1.1765984654892500e+03 +3.8212065953428188e+04 -4.4008258522981321e+06 
+6.1999999999999940e+00 -8.6242428275669525e-02 +2.1884538866964349e-04 -3.3787919108630438e-02 -4.9618927905457344e+00 +1.1744591758365859e+03 +3.8777575450759978e+04 -4.3858235340768006e+06 
+6.2999999999999936e+00 -8.6242427823214091e-02 +2.2105202175498660e-04 -3.3916962222861086e-02 -5.0477997894044808e+00 +1.1730246056705103e+03 +3.9277973877515717e+04 -4.3722754037176548e+06 
+6.3999999999999932e+00 -8.6242425158679581e-02 +2.2316710788424396e-04 -3.4119266850828750e-02 -5.1258730801155181e+00 +1.1721510853072036e+03 +3.9717742855380427e+04 -4.3597470454126252e+06 
+6.4999999999999929e+00 -8.6242420546688375e-02 +2.2521545958143526e-04 -3.4381235248440910e-02 -5.1968806420899769e+00 +1.1716949313692485e+03 +4.0101363061535711e+04 -4.3478040015456062e+06 
+6.5999999999999925e+00 -8.6242414251876107e-02 +2.2722187838971751e-04 -3.4689268382348135e-02 -5.2615902146771187e+00 +1.1715124424303883e+03 +4.0433314052299735e+04 -4.3360117539764224e+06 
+6.6999999999999922e+00 -8.6242406538888108e-02 +2.2921115530429411e-04 -3.5029766436446196e-02 -5.3207693141620904e+00 +1.1714599087190934e+03 +4.0718074375454198e+04 -4.3239357704429068e+06 
+6.7999999999999918e+00 -8.6242397672385021e-02 +2.3120806948002262e-04 -3.5389128062517122e-02 -5.3751851978578191e+00 +1.1713935983759286e+03 +4.0960121369218796e+04 -4.3111414417187767e+06 
+6.8999999999999915e+00 -8.6242387917041100e-02 +2.3323738814779851e-04 -3.5753750618703346e-02 -5.4256048673595645e+00 +1.1711697617843849e+03 +4.1163931198701765e+04 -4.2971941018886883e+06 
+6.9999999999999911e+00 -8.6242377537545725e-02 +2.3532386622764439e-04 -3.6110029985810782e-02 -5.4727950596111370e+00 +1.1706446286492649e+03 +4.1333978813061360e+04 -4.2816590166399907e+06 
+7.0999999999999908e+00 -8.6242366798602241e-02 +2.3749224585940798e-04 -3.6444360699430446e-02 -5.5175222383331191e+00 +1.1696744104915620e+03 +4.1474737911662894e+04 -4.2641013955904851e+06 
+7.1999999999999904e+00 -8.6242355964930087e-02 +2.3976725516516682e-04 -3.6743135728620896e-02 -5.5605525597365384e+00 +1.1681152968563974e+03 +4.1590680752991808e+04 -4.2440863759473972e+06 
+7.2999999999999901e+00 -8.6242345301263970e-02 +2.4217360928590058e-04 -3.6992746540608981e-02 -5.6026519090151021e+00 +1.1658234564953198e+03 +4.1686278384692720e+04 -4.2211790285573769e+06 
+7.3999999999999897e+00 -8.6242335072357804e-02 +2.4473600855531445e-04 -3.7179582639049337e-02 -5.6445858485041009e+00 +1.1626550291270075e+03 +4.1766000350014518e+04 -4.1949443208448850e+06 
+7.4999999999999893e+00 -8.6242325542980142e-02 +2.4747913852607732e-04 -3.7290032129037601e-02 -5.6871196236304797e+00 +1.1584661360944021e+03 +4.1834314738105990e+04 -4.1649471675840919e+06 
+7.5999999999999890e+00 -8.6242316977916539e-02 +2.5042766946316633e-04 -3.7310481435454089e-02 -5.7310181516204057e+00 +1.1531128753677726e+03 +4.1895688130426985e+04 -4.1307524086814709e+06 
+7.6999999999999886e+00 -8.6242309641976211e-02 +2.5360625625140830e-04 -3.7227314462699349e-02 -5.7770460217383182e+00 +1.1464513058339132e+03 +4.1954585612306408e+04 -4.0919247362232045e+06 
+7.7999999999999883e+00 -8.6242303799982364e-02 +2.5703953720071347e-04 -3.7026913814992631e-02 -5.8259674652338376e+00 +1.1383374704602886e+03 +4.2015470614295657e+04 -4.0480288043246060e+06 
+7.8999999999999879e+00 -8.6242299716781157e-02 +2.6075213400392780e-04 -3.6695659714351493e-02 -5.8785463579084558e+00 +1.1286273764912128e+03 +4.2082804939500325e+04 -3.9986291381775201e+06 
+7.9999999999999876e+00 -8.6242297657227560e-02 +2.6476864962184056e-04 -3.6219932211398194e-02 -5.9355462561557744e+00 +1.1171770301761169e+03 +4.2161049535363891e+04 -3.9432902438442353e+06 
+8.0999999999999872e+00 -8.6242297819759436e-02 +2.6909895323577450e-04 -3.5591142978240502e-02 -5.9974363187437900e+00 +1.1039117597729867e+03 +4.2253487805626202e+04 -3.8818311716084490e+06 
+8.1999999999999869e+00 -8.6242300136788866e-02 +2.7369332500912886e-04 -3.4818435183071962e-02 -6.0633480688366035e+00 +1.0889830417438345e+03 +4.2357415300614193e+04 -3.8148706407983028e+06 
+8.2999999999999865e+00 -8.6242304473379272e-02 +2.7848635225461636e-04 -3.3914870473415626e-02 -6.1320238986186917e+00 +1.0725863121456471e+03 +4.2468272392584389e+04 -3.7431695007888619e+06 
+8.3999999999999861e+00 -8.6242310694562951e-02 +2.8341262809910704e-04 -3.2893511445188303e-02 -6.2022063226224633e+00 +1.0549169858473726e+03 +4.2581500345552973e+04 -3.6674884339519278e+06 
+8.4999999999999858e+00 -8.6242318665336645e-02 +2.8840675518683912e-04 -3.1767422648653003e-02 -6.2726381360278829e+00 +1.0361704865460651e+03 +4.2692541975988170e+04 -3.5885880989154908e+06 
+8.5999999999999854e+00 -8.6242328250659903e-02 +2.9340334706739937e-04 -3.0549670819923713e-02 -6.3420624555036174e+00 +1.0165422511698268e+03 +4.2796841887132097e+04 -3.5072291519418042e+06 
+8.6999999999999851e+00 -8.6242339315455940e-02 +2.9833702790730616e-04 -2.9253324601489789e-02 -6.4092227084595645e+00 +9.9622772262243302e+02 +4.2889846397912916e+04 -3.4241722073437548e+06 
+8.7999999999999847e+00 -8.6242351724608340e-02 +3.0314243301108571e-04 -2.7891454941054217e-02 -6.4728626499620034e+00 +9.7542235736066050e+02 +4.2967003642415162e+04 -3.3401778740108646e+06 
+8.8999999999999844e+00 -8.6242365342962674e-02 +3.0775420928708602e-04 -2.6477134790607208e-02 -6.5317263743892173e+00 +9.5432161840881497e+02 +4.3023763629480010e+04 -3.2560067190730092e+06 
+8.9999999999999840e+00 -8.6242380035321281e-02 +3.1210701583686329e-04 -2.5023439662888565e-02 -6.5845583322162220e+00 +9.3312098493709266e+02 +4.3055578335909842e+04 -3.1724193110140292e+06 
+9.0999999999999837e+00 -8.6242395666448063e-02 +3.1613552370480348e-04 -2.3543446975478111e-02 -6.6301033226927899e+00 +9.1201593929135925e+02 +4.3057901661292119e+04 -3.0901761571867652e+06 
+9.1999999999999833e+00 -8.6242412101061428e-02 +3.1977441684800326e-04 -2.2050236857601286e-02 -6.6671065211904139e+00 +8.9120198110666308e+02 +4.3026189580831589e+04 -3.0100377676964430e+06 
+9.2999999999999829e+00 -8.6242429203836665e-02 +3.2295839237561137e-04 -2.0556891743572107e-02 -6.6943134858084292e+00 +8.7087461881363424e+02 +4.2955900179745491e+04 -2.9327646134611121e+06 
+9.3999999999999826e+00 -8.6242446839403575e-02 +3.2562216083706352e-04 -1.9076496655440641e-02 -6.7104701653927306e+00 +8.5122937434883806e+02 +4.2842493695778496e+04 -2.8591171470498238e+06 
+9.4999999999999822e+00 -8.6242464872347144e-02 +3.2770044621310558e-04 -1.7622138956206131e-02 -6.7143228983457890e+00 +8.3246177713015254e+02 +4.2681432507088357e+04 -2.7898557710230793e+06 
+9.5999999999999819e+00 -8.6242483167205147e-02 +3.2912798736117244e-04 -1.6206908636793492e-02 -6.7046184544889664e+00 +8.1476736908145597e+02 +4.2468181371013859e+04 -2.7257408607857181e+06 
+9.6999999999999815e+00 -8.6242501588464984e-02 +3.2983953725256168e-04 -1.4843898621455643e-02 -6.6801040123210838e+00 +7.9834170935566794e+02 +4.2198207287864738e+04 -2.6675327843465344e+06 
+9.7999999999999812e+00 -8.6242520000566314e-02 +3.2976986402400978e-04 -1.3546204301087994e-02 -6.6395271892512122e+00 +7.8338036435826734e+02 +4.1866979672083733e+04 -2.6159918526177332e+06 
+9.8999999999999808e+00 -8.6242538267899821e-02 +3.2885375107580338e-04 -1.2326923739958560e-02 -6.5816360436593762e+00 +7.7007891153479557e+02 +4.1469970359698884e+04 -2.5718783371185716e+06 
+9.9999999999999805e+00 -8.6242556254826519e-02 +3.2702600740064602e-04 -1.1199152525654983e-02 -6.5051790345503155e+00 +7.5863285311724610e+02 +4.1002650032907324e+04 -2.5359523370545073e+06 
+1.0099999999999980e+01 -8.6242573846890977e-02 +3.2424897260631874e-04 -1.0170668796557689e-02 -6.4094405194063242e+00 +7.4914070214241099e+02 +4.0462287167063885e+04 -2.5085835140726492e+06 
