# multipoles
# s[mm] polynom_b[n=0][T/m^n] polynom_b[n=1][T/m^n] polynom_b[n=2][T/m^n] polynom_b[n=3][T/m^n] polynom_b[n=4][T/m^n] polynom_b[n=5][T/m^n] polynom_b[n=6][T/m^n] 
+0.0000000000000000e+00 -4.5548783360364564e-01 +7.7026841618266795e-05 -7.2549738034396988e-02 +3.4922567427300507e+01 +2.7268358606480670e+03 -1.4630803302897367e+05 -9.5901140274699442e+06 
-1.0000000000000001e-01 -4.5548771289651263e-01 +1.0106987123943233e-04 -7.4829425934249558e-02 +3.4399708839287811e+01 +2.7529993023806669e+03 -1.4374353104000550e+05 -9.7099008111588079e+06 
-2.0000000000000001e-01 -4.5548758603810702e-01 +1.2756366549871988e-04 -7.7315601339591256e-02 +3.3811860191199344e+01 +2.7793126568914718e+03 -1.4087100353950859e+05 -9.8203529767779894e+06 
-3.0000000000000004e-01 -4.5548745394811668e-01 +1.5632633333346113e-04 -7.9975849384174333e-02 +3.3163118035096694e+01 +2.8055750406560628e+03 -1.3770733051652435e+05 -9.9214481557676997e+06 
-4.0000000000000002e-01 -4.5548731754635202e-01 +1.8717601118053832e-04 -8.2777742667398735e-02 +3.2457578453001872e+01 +2.8315853966788081e+03 -1.3426939102467842e+05 -1.0013163354269754e+07 
-5.0000000000000000e-01 -4.5548717775274911e-01 +2.1993085544033737e-04 -8.5688840168262684e-02 +3.1699337184581204e+01 +2.8571424628074010e+03 -1.3057406355246596e+05 -1.0095474773637025e+07 
-5.9999999999999998e-01 -4.5548703548733804e-01 +2.5440903447315305e-04 -8.8676690128433711e-02 +3.0892489771733032e+01 +2.8820448129680512e+03 -1.2663822650740728e+05 -1.0168357970113106e+07 
-6.9999999999999996e-01 -4.5548689167024931e-01 +2.9042872500101530e-04 -9.1708828659599492e-02 +3.0041131584746445e+01 +2.9060908192168449e+03 -1.2247875803448228e+05 -1.0231787643157868e+07 
-7.9999999999999993e-01 -4.5548674722167043e-01 +3.2780810630790314e-04 -9.4752783956742179e-02 +2.9149357891496678e+01 +2.9290787165005918e+03 -1.1811253603120417e+05 -1.0285737901552286e+07 
-8.9999999999999991e-01 -4.5548660306185312e-01 +3.6636535034695892e-04 -9.7776074690107351e-02 +2.8221264064181458e+01 +2.9508065617293578e+03 -1.1355643900622967e+05 -1.0330182041750720e+07 
-9.9999999999999989e-01 -4.5548646011108956e-01 +4.0591862046604092e-04 -1.0074621209411026e-01 +2.7260945528237368e+01 +2.9710722586966817e+03 -1.0882734542863205e+05 -1.0365092625699600e+07 
-1.0999999999999999e+00 -4.5548631928969402e-01 +4.4628606007884229e-04 -1.0363070139097906e-01 +2.6272498004053684e+01 +2.9896735750579201e+03 -1.0394213476925083e+05 -1.0390441534780124e+07 
-1.2000000000000000e+00 -4.5548618151798442e-01 +4.8728579161603987e-04 -1.0639704307766593e-01 +2.5260017447250135e+01 +3.0064081504692072e+03 -9.8917686795549802e+04 -1.0406199963980794e+07 
-1.3000000000000000e+00 -4.5548604771628881e-01 +5.2873590648343358e-04 -1.0901273145131607e-01 +2.4227600258535436e+01 +3.0210734586316307e+03 -9.3770882445949814e+04 -1.0412338215765586e+07 
-1.4000000000000001e+00 -4.5548591880489236e-01 +5.7045446041964303e-04 -1.1144526008827013e-01 +2.3179343323458646e+01 +3.0334668968598753e+03 -8.8518603681540684e+04 -1.0408826085251218e+07 
-1.5000000000000002e+00 -4.5548579570405878e-01 +6.1225946660482713e-04 -1.1366211845799955e-01 +2.2119344136304932e+01 +3.0433857093805536e+03 -8.3177733882820030e+04 -1.0395632463090729e+07 
-1.6000000000000003e+00 -4.5548567933398854e-01 +6.5396888987620777e-04 -1.1563079636063887e-01 +2.1051700868217566e+01 +3.0506270602394297e+03 -7.7765157850795571e+04 -1.0372725650928756e+07 
-1.7000000000000004e+00 -4.5548557061481931e-01 +6.9540064189926290e-04 -1.1731878262848611e-01 +1.9980512431848837e+01 +3.0549879928501514e+03 -7.2297761862847925e+04 -1.0340073126904259e+07 
-1.8000000000000005e+00 -4.5548547046660270e-01 +7.3637257277574600e-04 -1.1869356746431257e-01 +1.8909878628424710e+01 +3.0562654647239960e+03 -6.6792434142784710e+04 -1.0297641684589026e+07 
-1.9000000000000006e+00 -4.5548537980927861e-01 +7.7670246426031421e-04 -1.1972264479044427e-01 +1.7843900264666278e+01 +3.0542563768488844e+03 -6.1266065198486162e+04 -1.0245397529641656e+07 
-2.0000000000000004e+00 -4.5548529956275108e-01 +8.1620805802300753e-04 -1.2037349598720463e-01 +1.6786678573632077e+01 +3.0487572431046397e+03 -5.5735547907955588e+04 -1.0183304943067491e+07 
-2.1000000000000005e+00 -4.5548523035671917e-01 +8.5473746995204847e-04 -1.2062139953308930e-01 +1.5741846335719284e+01 +3.0396095115868839e+03 -5.0216844345169739e+04 -1.0111395302663509e+07 
-2.2000000000000006e+00 -4.5548517160573743e-01 +8.9220915035144053e-04 -1.2048529508362475e-01 +1.4712526026230355e+01 +3.0270463036993542e+03 -4.4728844664031334e+04 -1.0030729285556279e+07 
-2.3000000000000007e+00 -4.5548512240685735e-01 +9.2854754210202749e-04 -1.1999756551424599e-01 +1.3702074656181411e+01 +3.0114345387242556e+03 -3.9293276437463472e+04 -9.9427229932476413e+06 
-2.4000000000000008e+00 -4.5548508185694619e-01 +9.6367706276162220e-04 -1.1919061418522704e-01 +1.2713850790210335e+01 +2.9931413858014671e+03 -3.3931879395365366e+04 -9.8487930832457431e+06 
-2.5000000000000009e+00 -4.5548504905265119e-01 +9.9752212559325241e-04 -1.1809687191097942e-01 +1.1751213245075235e+01 +2.9725344957239076e+03 -2.8666394514140757e+04 -9.7503583309907038e+06 
-2.6000000000000010e+00 -4.5548502309043032e-01 +1.0300071468564344e-03 -1.1674879406050773e-01 +1.0817520946259300e+01 +2.9499819491252856e+03 -2.3518563349583783e+04 -9.6488393850849345e+06 
-2.7000000000000011e+00 -4.5548500306647532e-01 +1.0610565494327162e-03 -1.1517887049027892e-01 +9.9161328804462130e+00 +2.9258524460508802e+03 -1.8510127898906601e+04 -9.5456596600181684e+06 
-2.8000000000000012e+00 -4.5548498807676657e-01 +1.0905947633027928e-03 -1.1341961908064313e-01 +9.0504081446380180e+00 +2.9005151846471672e+03 -1.3662831024680494e+04 -9.4422447591932360e+06 
-2.9000000000000012e+00 -4.5548497721700704e-01 +1.1185462302566566e-03 -1.1150359501483689e-01 +8.2237058672913399e+00 +2.8743400414830635e+03 -8.9984161408812743e+03 -9.3400233311424628e+06 
-3.0000000000000013e+00 -4.5548496958260887e-01 +1.1448354067863568e-03 -1.0946339262459710e-01 +7.4393851913422981e+00 +2.8476976062792028e+03 -4.5386272650982928e+03 -9.2404272257037852e+06 
-3.1000000000000014e+00 -4.5548496426869994e-01 +1.1693867691792922e-03 -1.0733164518520696e-01 +6.7008051798844308e+00 +2.8209591814012242e+03 -3.0520860248001543e+02 -9.1448914946579561e+06 
-3.2000000000000015e+00 -4.5548496037009667e-01 +1.1921248144291555e-03 -1.0514102884634136e-01 +6.0113248557615782e+00 +2.7944968568897461e+03 +3.6800950777112298e+03 -9.0548547391320337e+06 
-3.3000000000000016e+00 -4.5548495698127589e-01 +1.2129740631615798e-03 -1.0292426717986607e-01 +5.3743031757778121e+00 +2.7686836021161257e+03 +7.3955384483070911e+03 -8.9717595501557887e+06 
-3.4000000000000017e+00 -4.5548495319639443e-01 +1.2318590662433783e-03 -1.0071412846621716e-01 +4.7930988996722466e+00 +2.7438932129238301e+03 +1.0819376243442986e+04 -8.8970522497391924e+06 
-3.5000000000000018e+00 -4.5548494810922846e-01 +1.2487044034536199e-03 -9.8543434433248617e-02 +4.2710706912906966e+00 +2.7205004800428637e+03 +1.3929862526766326e+04 -8.8321836838791110e+06 
-3.6000000000000019e+00 -4.5548494081317803e-01 +1.2634346919874631e-03 -9.6445060152592979e-02 +3.8115769288002679e+00 +2.6988811908918519e+03 +1.6705251655657892e+04 -8.7786092362196725e+06 
-3.7000000000000020e+00 -4.5548493040126764e-01 +1.2759745842142844e-03 -9.4451934254162956e-02 +3.4179758345058864e+00 +2.6794121338191999e+03 +1.9123797384060679e+04 -8.7377888407465033e+06 
-3.8000000000000020e+00 -4.5548491596608942e-01 +1.2862487757485314e-03 -9.2597047085125228e-02 +3.0936252975697109e+00 +2.6624712567171105e+03 +2.1163753749961601e+04 -8.7111877338398173e+06 
-3.9000000000000021e+00 -4.5548489659984925e-01 +1.2941820058218886e-03 -9.0913444916649197e-02 +2.8418829281891198e+00 +2.6484375572996423e+03 +2.2803374615990550e+04 -8.7002759303674214e+06 
-4.0000000000000018e+00 -4.5548487139385363e-01 +1.2996992260970528e-03 -8.9434288980106191e-02 +2.6660916888427382e+00 +2.6376910297438189e+03 +2.4021027209584056e+04 -8.7065234223288577e+06 
-4.1000000000000014e+00 -4.5548483956852759e-01 +1.3027464844698759e-03 -8.8190687858106576e-02 +2.5682222748357240e+00 +2.6305343596681337e+03 +2.4804812343454716e+04 -8.7308244827634096e+06 
-4.2000000000000011e+00 -4.5548480108745698e-01 +1.3033558702223002e-03 -8.7182422591667225e-02 +2.5464105980914931e+00 +2.6267803779979358e+03 +2.5166884950092219e+04 -8.7717056954359561e+06 
-4.3000000000000007e+00 -4.5548475614789408e-01 +1.3015845682895861e-03 -8.6397135321197402e-02 +2.5978908570693546e+00 +2.6260802460545956e+03 +2.5124138134169360e+04 -8.8270005522450302e+06 
-4.4000000000000004e+00 -4.5548470494717669e-01 +1.2974897949988514e-03 -8.5822450553469293e-02 +2.7198965157936290e+00 +2.6280848589099428e+03 +2.4693447676350032e+04 -8.8945398225650564e+06 
-4.5000000000000000e+00 -4.5548464768268088e-01 +1.2911288129091665e-03 -8.5445978902203124e-02 +2.9096601092256114e+00 +2.6324447934492796e+03 +2.3891691701525822e+04 -8.9721526332788542e+06 
-4.5999999999999996e+00 -4.5548458455180696e-01 +1.2825589321631184e-03 -8.5255318690973400e-02 +3.1644132130468328e+00 +2.6388103371412526e+03 +2.2735750703621281e+04 -9.0576666013629511e+06 
-4.6999999999999993e+00 -4.5548451575201188e-01 +1.2718375128718561e-03 -8.5238051009804278e-02 +3.4813863894649142e+00 +2.6468313937504954e+03 +2.1242507685528952e+04 -9.1489073926385045e+06 
-4.7999999999999989e+00 -4.5548444148081590e-01 +1.2590219664815275e-03 -8.5381738665191317e-02 +3.8578091560789183e+00 +2.6561574621659242e+03 +1.9428848185022664e+04 -9.2436986206077095e+06 
-4.8999999999999986e+00 -4.5548436193580571e-01 +1.2441697589632356e-03 -8.5673925210939139e-02 +4.2909099050165542e+00 +2.6664376188026404e+03 +1.7311660581686756e+04 -9.3398617697209883e+06 
-4.9999999999999982e+00 -4.5548427731465418e-01 +1.2273384123575475e-03 -8.6102131910465757e-02 +4.7779158724666502e+00 +2.6773204569780082e+03 +1.4907836104049789e+04 -9.4352159038990457e+06 
-5.0999999999999979e+00 -4.5548418781514682e-01 +1.2085855076654948e-03 -8.6653854028657315e-02 +5.3160530622258584e+00 +2.6884540172161360e+03 +1.2234269119120245e+04 -9.5275773425068911e+06 
-5.1999999999999975e+00 -4.5548409363515935e-01 +1.1879686852595964e-03 -8.7316563189363927e-02 +5.9025462501247770e+00 +2.6994858319529062e+03 +9.3078569342004794e+03 -9.6147598755759746e+06 
-5.2999999999999972e+00 -4.5548399497270559e-01 +1.1655456505983161e-03 -8.8077700603080275e-02 +6.5346188278331114e+00 +2.7100627939755400e+03 +6.1455005406894343e+03 -9.6945741370850485e+06 
-5.3999999999999968e+00 -4.5548389202593453e-01 +1.1413741703321767e-03 -8.8924677501793975e-02 +7.2094929232835900e+00 +2.7198311670455673e+03 +2.7641037707271385e+03 -9.7648276645121202e+06 
-5.4999999999999964e+00 -4.5548378499312875e-01 +1.1155120824544726e-03 -8.9844874115186935e-02 +7.9243891268408264e+00 +2.7284365626721506e+03 -8.1942530971334781e+02 -9.8233247842774950e+06 
-5.5999999999999961e+00 -4.5548367407275248e-01 +1.0880172909106969e-03 -9.0825633938551587e-02 +8.6765266494535442e+00 +2.7355238340261167e+03 -4.5881754491527363e+03 -9.8678661190262940e+06 
-5.6999999999999957e+00 -4.5548355946342700e-01 +1.0589477725740529e-03 -9.1854265558017276e-02 +9.4631231420906801e+00 +2.7407371065050693e+03 -8.5252313557345242e+03 -9.8962487266773786e+06 
-5.7999999999999954e+00 -4.5548344136396895e-01 +1.0283615783730948e-03 -9.2918038096350963e-02 +1.0281394666621685e+01 +2.7437196938519464e+03 -1.2613673672782486e+04 -9.9062657125879955e+06 
-5.8999999999999950e+00 -4.5548331997338209e-01 +9.9631683275062336e-04 -9.4004181363493006e-02 +1.1128555726692568e+01 +2.7441140989373762e+03 -1.6836579322124151e+04 -9.8957062333357465e+06 
-5.9999999999999947e+00 -4.5548319549186467e-01 +9.6287099054619184e-04 -9.5099792627088037e-02 +1.2001878262962117e+01 +2.7415651025066463e+03 -2.1177450658022521e+04 -9.8623858390531708e+06 
-6.0999999999999943e+00 -4.5548306816988998e-01 +9.2810047287788817e-04 -9.6183603693142466e-02 +1.2899532042659235e+01 +2.7357017957485327e+03 -2.5628064823395183e+04 -9.8044894392255526e+06 
-6.1999999999999940e+00 -4.5548293829462067e-01 +8.9224862388285152e-04 -9.7243221363011167e-02 +1.3817305632336701e+01 +2.7265544587216441e+03 -3.0171727064823172e+04 -9.7227581931324899e+06 
-6.2999999999999936e+00 -4.5548280614516984e-01 +8.5564664057718239e-04 -9.8280073559177908e-02 +1.4748717727208399e+01 +2.7144973990659482e+03 -3.4779030090578948e+04 -9.6197914847431518e+06 
-6.3999999999999932e+00 -4.5548267200049330e-01 +8.1862732170882825e-04 -9.9295873859918934e-02 +1.5687223678138267e+01 +2.6999139679784366e+03 -3.9420128238584148e+04 -9.4982448321292736e+06 
-6.4999999999999929e+00 -4.5548253614037026e-01 +7.8152338497838945e-04 -1.0029227322717982e-01 +1.6626279540947092e+01 +2.6831866909010801e+03 -4.4065172917747746e+04 -9.3607708144935705e+06 
-6.5999999999999925e+00 -4.5548239884542457e-01 +7.4466745839310827e-04 -1.0127085861155365e-01 +1.7559342252695195e+01 +2.6646972529793293e+03 -4.8684313294742045e+04 -9.2100190351379309e+06 
-6.6999999999999922e+00 -4.5548226039715273e-01 +7.0839207944910611e-04 -1.0223315120827906e-01 +1.8479869579392911e+01 +2.6448264811176227e+03 -5.3247695655066687e+04 -9.0486360785008334e+06 
-6.7999999999999918e+00 -4.5548212107798502e-01 +6.7302968822354717e-04 -1.0318060049226202e-01 +1.9381320241406662e+01 +2.6239542472620888e+03 -5.7725463787537105e+04 -8.8792650983904861e+06 
-6.8999999999999915e+00 -4.5548198117128602e-01 +6.3891262622507012e-04 -1.0411458561421502e-01 +2.0257153878375227e+01 +2.6024595071533445e+03 -6.2087758471182991e+04 -8.7045460338391326e+06 
-6.9999999999999911e+00 -4.5548184096140804e-01 +6.0637312827186839e-04 -1.0503641072445877e-01 +2.1100831203450245e+01 +2.5807202289758775e+03 -6.6304718010880635e+04 -8.5271153195985649e+06 
-7.0999999999999908e+00 -4.5548170073371380e-01 +5.7574331979009174e-04 -1.0594730352081595e-01 +2.1905814010121389e+01 +2.5591133797552548e+03 -7.0346477948418295e+04 -8.3496058604124375e+06 
-7.1999999999999904e+00 -4.5548156077460722e-01 +5.4735521392409742e-04 -1.0684841293664392e-01 +2.2665565180457918e+01 +2.5380148945067631e+03 -7.4183170775005230e+04 -8.1746469199597817e+06 
-7.2999999999999901e+00 -4.5548142137158981e-01 +5.2154070456313692e-04 -1.0774080401269751e-01 +2.3373548815631118e+01 +2.5177995962385926e+03 -7.7784926361834892e+04 -8.0048637902669283e+06 
-7.3999999999999897e+00 -4.5548128281325784e-01 +4.9863156354318296e-04 -1.0862545979950783e-01 +2.4023230238646800e+01 +2.4988412456223459e+03 -8.1121871624431136e+04 -7.8428780637833318e+06 
-7.4999999999999893e+00 -4.5548114538935824e-01 +4.7895943446510353e-04 -1.0950327582749435e-01 +2.4608076101061052e+01 +2.4815124498649861e+03 -8.4164130814777818e+04 -7.6913072401278429e+06 
-7.5999999999999890e+00 -4.5548100939081992e-01 +4.6285583110630251e-04 -1.1037505813105609e-01 +2.5121554354897043e+01 +2.4661846420552342e+03 -8.6881825023997590e+04 -7.5527646742305923e+06 
-7.6999999999999886e+00 -4.5548087510977686e-01 +4.5065212910482412e-04 -1.1124152159299831e-01 +2.5557134416387132e+01 +2.4532280614152005e+03 -8.9245072785784345e+04 -7.4298595154178757e+06 
-7.7999999999999883e+00 -4.5548074283961143e-01 +4.4267956504006174e-04 -1.1210328663498470e-01 +2.5908287119381939e+01 +2.4430117083784362e+03 -9.1223989475333699e+04 -7.3251965430284068e+06 
-7.8999999999999879e+00 -4.5548061287498598e-01 +4.3926922894182351e-04 -1.1296087626843904e-01 +2.6168484859322252e+01 +2.4359032990641922e+03 -9.2788687809919560e+04 -7.2413759805800924e+06 
-7.9999999999999876e+00 -4.5548048551070441e-01 +4.4075347028574069e-04 -1.1381489275199444e-01 +2.6331061942010184e+01 +2.4322599747617796e+03 -9.3908350836210389e+04 -7.1809181386385225e+06 
-8.0999999999999872e+00 -4.5548036100055123e-01 +4.4737100920868916e-04 -1.1468387876388114e-01 +2.6389566990017187e+01 +2.4325938446526065e+03 -9.4548812855285549e+04 -7.1465411557442565e+06 
-8.1999999999999869e+00 -4.5548023936818971e-01 +4.5893140464158569e-04 -1.1558642739731982e-01 +2.6345572332286071e+01 +2.4371383563877539e+03 -9.4711756870464247e+04 -7.1390168711269815e+06 
-8.2999999999999865e+00 -4.5548012053864234e-01 +4.7504379686311577e-04 -1.1651818160665112e-01 +2.6205475293837967e+01 +2.4455476330683441e+03 -9.4423120423749351e+04 -7.1561721944790389e+06 
-8.3999999999999861e+00 -4.5548000443928538e-01 +4.9531220334933176e-04 -1.1747361548023016e-01 +2.5975839379139121e+01 +2.4574453278103119e+03 -9.3709728255058391e+04 -7.1956770929237716e+06 
-8.4999999999999858e+00 -4.5547989099647523e-01 +5.1934069794002508e-04 -1.1844726361547005e-01 +2.5663228253278728e+01 +2.4724558077809170e+03 -9.2598413188601582e+04 -7.2552040733488603e+06 
-8.5999999999999854e+00 -4.5547978013551477e-01 +5.4673341052660315e-04 -1.1943372314118382e-01 +2.5274205817511291e+01 +2.4902041764756095e+03 -9.1116016826949141e+04 -7.3324282533903113e+06 
-8.6999999999999851e+00 -4.5547967178061505e-01 +5.7709452933797460e-04 -1.2042765591660333e-01 +2.4815336211345098e+01 +2.5103162975126429e+03 -8.9289389829642416e+04 -7.4250274346672716e+06 
-8.7999999999999847e+00 -4.5547956585485072e-01 +6.1002830304787389e-04 -1.2142379202591128e-01 +2.4293183822636745e+01 +2.5324188478264778e+03 -8.7145392246110248e+04 -7.5306823300350802e+06 
-8.8999999999999844e+00 -4.5547946228011926e-01 +6.4513904426030948e-04 -1.2241693252667560e-01 +2.3714313254439041e+01 +2.5561393509866093e+03 -8.4710893584300939e+04 -7.6470766778507847e+06 
-8.9999999999999840e+00 -4.5547936097711361e-01 +6.8203113121225432e-04 -1.2340195054078390e-01 +2.3085289344674678e+01 +2.5811061844473252e+03 -8.2012773197908944e+04 -7.7718972514750781e+06 
-9.0999999999999837e+00 -4.5547926186528204e-01 +7.2030901119261132e-04 -1.2437379383412751e-01 +2.2412677135635708e+01 +2.6069486092070779e+03 -7.9077920368287087e+04 -7.9028339554387685e+06 
-9.1999999999999833e+00 -4.5547916486276963e-01 +7.5957720105563036e-04 -1.2532749031011575e-01 +2.1703041932322911e+01 +2.6332968636328078e+03 -7.5933234925494107e+04 -8.0375802518583313e+06 
-9.2999999999999829e+00 -4.5547906988640668e-01 +7.9944029173616724e-04 -1.2625814652996256e-01 +2.0962949238461697e+01 +2.6597821131641572e+03 -7.2605627138925673e+04 -8.1738328710129429e+06 
-9.3999999999999826e+00 -4.5547897685165073e-01 +8.3950294936615665e-04 -1.2716095319189413e-01 +2.0198964791604904e+01 +2.6860365429345629e+03 -6.9122018180956904e+04 -8.3092922288236609e+06 
-9.4999999999999822e+00 -4.5547888567255407e-01 +8.7936991843796876e-04 -1.2803118658115253e-01 +1.9417654547695619e+01 +2.7116933674180773e+03 -6.5509340326695077e+04 -8.4416624340606220e+06 
-9.5999999999999819e+00 -4.5547879626173787e-01 +9.1864602474660783e-04 -1.2886420977365723e-01 +1.8625584658850634e+01 +2.7363868387107614e+03 -6.1794537074890482e+04 -8.5686512972741909e+06 
-9.6999999999999815e+00 -4.5547870853032568e-01 +9.5693617663366822e-04 -1.2965547835517974e-01 +1.7829321513912113e+01 +2.7597523372025889e+03 -5.8004563669485899e+04 -8.6879707208033707e+06 
-9.7999999999999812e+00 -4.5547862238792669e-01 +9.9384536947630560e-04 -1.3040054067322485e-01 +1.7035431672240335e+01 +2.7814263636099845e+03 -5.4166386972436696e+04 -8.7973366361507587e+06 
-9.8999999999999808e+00 -4.5547853774259189e-01 +1.0289786865476148e-03 -1.3109504048715512e-01 +1.6250481914749898e+01 +2.8010465699190077e+03 -5.0306986039257135e+04 -8.8944691081978716e+06 
-9.9999999999999805e+00 -4.5547845450033780e-01 +1.0619379203873026e-03 -1.3173484144521355e-01 +1.5481312366868330e+01 +2.8182783819808087e+03 -4.6454946312253152e+04 -8.9772620319488253e+06 
-1.0099999999999980e+01 -4.5547837251339496e-01 +1.0924076548070971e-03 -1.3230126005408382e-01 +1.4734990189244233e+01 +2.8326969317229778e+03 -4.2644071897786860e+04 -9.0436743578375652e+06 
