# multipoles
# s[mm] polynom_b[n=0][T/m^n] polynom_b[n=1][T/m^n] polynom_b[n=2][T/m^n] polynom_b[n=3][T/m^n] polynom_b[n=4][T/m^n] polynom_b[n=5][T/m^n] polynom_b[n=6][T/m^n] 
+0.0000000000000000e+00 -3.9051289646043280e-01 +7.7361185226627026e-04 +3.8180920005938074e-01 +2.0315639214882810e+00 -4.4661296901554442e+03 +5.5285542592129008e+04 +2.5522447984549966e+07 
+1.0000000000000001e-01 -3.9051289835200753e-01 +7.7783553159277007e-04 +3.7726730099690992e-01 +2.0840677814547011e+00 -4.3751078885914831e+03 +5.4601494210433295e+04 +2.5115707668932620e+07 
+2.0000000000000001e-01 -3.9051289190118760e-01 +7.7968873004355128e-04 +3.7179777656209345e-01 +2.1796238352003878e+00 -4.2698051770882139e+03 +5.3702728990020725e+04 +2.4653139584722202e+07 
+3.0000000000000004e-01 -3.9051287805923968e-01 +7.7923292792686093e-04 +3.6551402924497589e-01 +2.3172156342544636e+00 -4.1520108082940133e+03 +5.2593809995435615e+04 +2.4141866590612408e+07 
+4.0000000000000002e-01 -3.9051285777729572e-01 +7.7652965555836343e-04 +3.5852945039228168e-01 +2.4958253426907206e+00 -4.0235138522992515e+03 +5.1279307498007176e+04 +2.3589010758880284e+07 
+5.0000000000000000e-01 -3.9051283200635079e-01 +7.7164047466493223e-04 +3.5095741929931423e-01 +2.7144342795914072e+00 -3.8861031770741979e+03 +4.9763795976931331e+04 +2.3001693277982153e+07 
+5.9999999999999998e-01 -3.9051280169727276e-01 +7.6462696875657346e-04 +3.4291130437831291e-01 +2.9720232004071114e+00 -3.7415674698514504e+03 +4.8051852633248105e+04 +2.2387034552120987e+07 
+6.9999999999999996e-01 -3.9051276780081190e-01 +7.5555072672159828e-04 +3.3450446395191558e-01 +3.2675727723054160e+00 -3.5916952494568422e+03 +4.6148054789453541e+04 +2.1752154251523111e+07 
+7.9999999999999993e-01 -3.9051273126760688e-01 +7.4447333123682513e-04 +3.2585024658389095e-01 +3.6000639116269446e+00 -3.4382748694746933e+03 +4.4056978081966037e+04 +2.1104171320728038e+07 
+8.9999999999999991e-01 -3.9051269304818809e-01 +7.3145634355355053e-04 +3.1706199119396250e-01 +3.9684782273883576e+00 -3.2830945203233541e+03 +4.1783194037424269e+04 +2.0450203988522924e+07 
+9.9999999999999989e-01 -3.9051265409297053e-01 +7.1656128994569712e-04 +3.0825302595879850e-01 +4.3717984117316186e+00 -3.1279422044241805e+03 +3.9331267969447385e+04 +1.9797369639790554e+07 
+1.0999999999999999e+00 -3.9051261535229087e-01 +6.9984964818717603e-04 +2.9953667242122134e-01 +4.8090086391608349e+00 -2.9746058128934060e+03 +3.6705756797781673e+04 +1.9152785175431613e+07 
+1.2000000000000000e+00 -3.9051257777638554e-01 +6.8138283555507653e-04 +2.9102624258335519e-01 +5.2790949102193556e+00 -2.8248730686740214e+03 +3.3911207219646574e+04 +1.8523566739437927e+07 
+1.3000000000000000e+00 -3.9051254231540594e-01 +6.6122219166914230e-04 +2.8283504056308517e-01 +5.7810455528735343e+00 -2.6805315561415482e+03 +3.0952152948731975e+04 +1.7916829854594622e+07 
+1.4000000000000001e+00 -3.9051250991942815e-01 +6.3942896819166382e-04 +2.7507636296791277e-01 +6.3138515184362989e+00 -2.5433687228445820e+03 +2.7833113156553969e+04 +1.7339689416537203e+07 
+1.5000000000000002e+00 -3.9051248153844131e-01 +6.1606431259442630e-04 +2.6786349791217673e-01 +6.8765068624791512e+00 -2.4151718648081446e+03 +2.4558589814106141e+04 +1.6799259635814440e+07 
+1.6000000000000003e+00 -3.9051245812238605e-01 +5.9118925690201105e-04 +2.6130972874419717e-01 +7.4680090597341131e+00 -2.2977281893323116e+03 +2.1133066047647590e+04 +1.6302654313636404e+07 
+1.7000000000000004e+00 -3.9051244062112517e-01 +5.6486470121772429e-04 +2.5552833058039820e-01 +8.0873594958309205e+00 -2.1928247503859898e+03 +1.7561003404276402e+04 +1.5856986540236656e+07 
+1.8000000000000005e+00 -3.9051242998447855e-01 +5.3715140282591795e-04 +2.5063257401830896e-01 +8.7335637726503990e+00 -2.1022485160450237e+03 +1.3846840265552220e+04 +1.5469369005847430e+07 
+1.9000000000000006e+00 -3.9051242716219770e-01 +5.0810996007523651e-04 +2.4673572181041786e-01 +9.4056321861895196e+00 -2.0277863043299139e+03 +9.9949891995808066e+03 +1.5146913696162909e+07 
+2.0000000000000004e+00 -3.9051243310395145e-01 +4.7780079783303397e-04 +2.4395102423888412e-01 +1.0102579279306662e+01 -1.9712247651209416e+03 +6.0098451794785697e+03 +1.4896732351453863e+07 
+2.1000000000000005e+00 -3.9051244840966542e-01 +4.4630105364814460e-04 +2.4235477316038623e-01 +1.0822849762503827e+01 -1.9337751913766738e+03 +1.9001903651190426e+03 +1.4723674201295273e+07 
+2.2000000000000006e+00 -3.9051247231709529e-01 +4.1380843944551990e-04 +2.4187609247903313e-01 +1.1562398178670344e+01 -1.9143389031091122e+03 -2.3113395906014644e+03 +1.4623321471988408e+07 
+2.3000000000000007e+00 -3.9051250372499757e-01 +3.8056548272256133e-04 +2.4240578059645382e-01 +1.2316472186489543e+01 -1.9112128232936989e+03 -6.5992736183413017e+03 +1.4588812112960456e+07 
+2.4000000000000008e+00 -3.9051254153228498e-01 +3.4681477548516450e-04 +2.4383464475538588e-01 +1.3080318445255193e+01 -1.9226940711792915e+03 -1.0938137774024393e+04 +1.4613285173755156e+07 
+2.5000000000000009e+00 -3.9051258463806676e-01 +3.1279896465927752e-04 +2.4605351009988377e-01 +1.3849182153433153e+01 -1.9470800736943042e+03 -1.5302450139840596e+04 +1.4689881044710422e+07 
+2.6000000000000010e+00 -3.9051263194168107e-01 +2.7876077010249346e-04 +2.4895322266897724e-01 +1.4618306520664298e+01 -1.9826686176071510e+03 -1.9666717839646270e+04 +1.4811741688841999e+07 
+2.7000000000000011e+00 -3.9051268234273639e-01 +2.4494299388961975e-04 +2.5242465410226794e-01 +1.5382932515436407e+01 -2.0277579358695200e+03 -2.4005435715640382e+04 +1.4972011037790112e+07 
+2.8000000000000012e+00 -3.9051273474110876e-01 +2.1158853704062887e-04 +2.5635870011170286e-01 +1.6138298378316367e+01 -2.0806466740112901e+03 -2.8293083588313766e+04 +1.5163834818804564e+07 
+2.9000000000000012e+00 -3.9051278803700767e-01 +1.7894040946654519e-04 +2.6064628796188161e-01 +1.6879639338879510e+01 -2.1396340274092131e+03 -3.2504124722746645e+04 +1.5380361187982684e+07 
+3.0000000000000013e+00 -3.9051284113094897e-01 +1.4724174664248367e-04 +2.6517837233147368e-01 +1.7602187139404482e+01 -2.2030196607225048e+03 -3.6613003178982595e+04 +1.5614740341414671e+07 
+3.1000000000000014e+00 -3.9051289292384189e-01 +1.1673582006505198e-04 +2.6984594541902079e-01 +1.8301169731217939e+01 -2.2691038948519185e+03 -4.0594142139327138e+04 +1.5860125382337969e+07 
+3.2000000000000015e+00 -3.9051294231696021e-01 +8.7666051900553649e-05 +2.7454003222244117e-01 +1.8971810863288923e+01 -2.3361876129223174e+03 -4.4421941653184585e+04 +1.6109671863186922e+07 
+3.3000000000000016e+00 -3.9051298821201175e-01 +6.0276028603215984e-05 +2.7915169856177136e-01 +1.9609329683391536e+01 -2.4025724081072344e+03 -4.8070776400679904e+04 +1.6356538468180725e+07 
+3.4000000000000017e+00 -3.9051302951113193e-01 +3.4809512759084729e-05 +2.8357204946684100e-01 +2.0208940407775838e+01 -2.4665605514896006e+03 -5.1514993909838551e+04 +1.6593886855865605e+07 
+3.5000000000000018e+00 -3.9051306511693529e-01 +1.1510458221326398e-05 +2.8769223479555833e-01 +2.0765851879773354e+01 -2.5264550924747423e+03 -5.4728912078638154e+04 +1.6814882112883355e+07 
+3.6000000000000019e+00 -3.9051309393252343e-01 -9.3769781851666793e-06 +2.9140344919841377e-01 +2.1275267240169644e+01 -2.5805598548680678e+03 -5.7686817381439490e+04 +1.7012692724859178e+07 
+3.7000000000000020e+00 -3.9051311486152390e-01 -2.7608423083624565e-05 +2.9459693621825322e-01 +2.1732383537969696e+01 -2.6271795102878659e+03 -6.0362962718240269e+04 +1.7180490908561721e+07 
+3.8000000000000020e+00 -3.9051312680810785e-01 -4.2939272793578569e-05 +2.9716398988022508e-01 +2.2132391334902437e+01 -2.6646196054912989e+03 -6.2731565220380246e+04 +1.7311452729222395e+07 
+3.9000000000000021e+00 -3.9051312867702370e-01 -5.5124679980631056e-05 +2.9899595773150767e-01 +2.2470474324628778e+01 -2.6911866156217720e+03 -6.4766804151348646e+04 +1.7398758339758791e+07 
+4.0000000000000018e+00 -3.9051311937392597e-01 -6.3919607280003976e-05 +2.9998427580400566e-01 +2.2741814113281865e+01 -2.7051883670793686e+03 -6.6442895720840257e+04 +1.7435589700213220e+07 
+4.1000000000000014e+00 -3.9051309821284280e-01 -6.9170723026044584e-05 +3.0004846215994974e-01 +2.2943580751153590e+01 -2.7053582348375139e+03 -6.7746085387711821e+04 +1.7416723974594858e+07 
+4.2000000000000011e+00 -3.9051306595038016e-01 -7.1133098598523143e-05 +2.9922982660554792e-01 +2.3081089152142315e+01 -2.6923454379357686e+03 -6.8704916189153184e+04 +1.7344831795594923e+07 
+4.3000000000000007e+00 -3.9051302368001889e-01 -7.0189677338251786e-05 +2.9760733076714968e-01 +2.3162068774151518e+01 -2.6674159612727294e+03 -6.9359768370038204e+04 +1.7225257604270160e+07 
+4.4000000000000004e+00 -3.9051297249509920e-01 -6.6723806487833674e-05 +2.9525999239107598e-01 +2.3194258316769648e+01 -2.6318369762477791e+03 -6.9751084233296904e+04 +1.7063352923380945e+07 
+4.5000000000000000e+00 -3.9051291348846040e-01 -6.1118928324436629e-05 +2.9226678523482230e-01 +2.3185399285277196e+01 -2.5868749576665900e+03 -6.9919322492649051e+04 +1.6864466448723726e+07 
+4.5999999999999996e+00 -3.9051284775239054e-01 -5.3758586178905487e-05 +2.8870663478459013e-01 +2.3143236155966441e+01 -2.5337956170611433e+03 -6.9904959196373369e+04 +1.6633943781154480e+07 
+4.6999999999999993e+00 -3.9051277637859810e-01 -4.5026436077362519e-05 +2.8465841541428860e-01 +2.3075516713022253e+01 -2.4738638524769212e+03 -6.9748489670298644e+04 +1.6377127205143677e+07 
+4.7999999999999989e+00 -3.9051270045816644e-01 -3.5306253971041928e-05 +2.8020094641110721e-01 +2.2989992251577672e+01 -2.4083436852074242e+03 -6.9490429663717208e+04 +1.6099355429020271e+07 
+4.8999999999999986e+00 -3.9051262108150986e-01 -2.4981944042492379e-05 +2.7541298795206409e-01 +2.2894417815439393e+01 -2.3384981928091383e+03 -6.9171316713190012e+04 +1.5805963300153816e+07 
+4.9999999999999982e+00 -3.9051253933834762e-01 -1.4437547401559285e-05 +2.7037323923485873e-01 +2.2796552445242202e+01 -2.2655894840620731e+03 -6.8831711559026269e+04 +1.5502281721889231e+07 
+5.0999999999999979e+00 -3.9051245631765558e-01 -4.0572508656683658e-06 +2.6516033366858943e-01 +2.2704159428792430e+01 -2.1908786142766444e+03 -6.8512199575500941e+04 +1.5193637276070187e+07 
+5.1999999999999975e+00 -3.9051237310762776e-01 +5.7746045111764578e-06 +2.5985283580049834e-01 +2.2625006541009014e+01 -2.1156255399829729e+03 -6.8253392132671157e+04 +1.4885352052332148e+07 
+5.2999999999999972e+00 -3.9051229079563166e-01 +1.4673515155395857e-05 +2.5452923670587901e-01 +2.2566866282042376e+01 -2.0410890381428460e+03 -6.8095927961436551e+04 +1.4582743289608778e+07 
+5.3999999999999968e+00 -3.9051221046818718e-01 +2.2254806708477421e-05 +2.4926795313590441e-01 +2.2537516112493154e+01 -1.9685267001218278e+03 -6.8080474496257419e+04 +1.4291123381636158e+07 
+5.4999999999999964e+00 -3.9051213321090228e-01 +2.8133624956903085e-05 +2.4414732076859724e-01 +2.2544738711983243e+01 -1.8991948148906274e+03 -6.8247729352370341e+04 +1.4015799362273209e+07 
+5.5999999999999961e+00 -3.9051206010844758e-01 +3.1924928994844167e-05 +2.3924559219503513e-01 +2.2596322171656809e+01 -1.8343483372579631e+03 -6.8638421416296216e+04 +1.3762072779478366e+07 
+5.6999999999999957e+00 -3.9051199224452787e-01 +3.3243479405204553e-05 +2.3464093521195845e-01 +2.2700060333395164e+01 -1.7752408675521654e+03 -6.9293312794394587e+04 +1.3535239637698678e+07 
+5.7999999999999954e+00 -3.9051193070180751e-01 +3.1703833906106993e-05 +2.3041142462528172e-01 +2.2863752910163992e+01 -1.7231245047902078e+03 -7.0253199483176388e+04 +1.3340589734602198e+07 
+5.8999999999999950e+00 -3.9051187656191660e-01 +2.6920336187387529e-05 +2.2663504424707523e-01 +2.3095205807550425e+01 -1.6792498918946742e+03 -7.1558913221358685e+04 +1.3183406900632083e+07 
+5.9999999999999947e+00 -3.9051183090501762e-01 +1.8507561876451691e-05 +2.2338970904331032e-01 +2.3402215726713688e+01 -1.6448668599315668e+03 -7.3251110648901478e+04 +1.3068982805426450e+07 
+6.0999999999999943e+00 -3.9051179446594869e-01 +6.2002285386357519e-06 +2.2074085982094555e-01 +2.3790122141518708e+01 -1.6210551494801932e+03 -7.5356367699963099e+04 +1.3002096328007286e+07 
+6.1999999999999940e+00 -3.9051176689137551e-01 -9.8110287024133164e-06 +2.1868102636616618e-01 +2.4254368621625428e+01 -1.6076833141835120e+03 -7.7850184254877837e+04 +1.2982276979601631e+07 
+6.2999999999999936e+00 -3.9051174760124291e-01 -2.9184077443762775e-05 +2.1717317630132843e-01 +2.4786756406463766e+01 -1.6040420517025577e+03 -8.0688868950810982e+04 +1.3006278764850993e+07 
+6.3999999999999932e+00 -3.9051173601512479e-01 -5.1575216256875349e-05 +2.1617999411359848e-01 +2.5379032530147331e+01 -1.6094140247722305e+03 -8.3828390220903355e+04 +1.3070809179863933e+07 
+6.4999999999999929e+00 -3.9051173155331054e-01 -7.6640690576668561e-05 +2.1566423788886066e-01 +2.6022941927516037e+01 -1.6230830786336608e+03 -8.7224702734307066e+04 +1.3172580471364733e+07 
+6.5999999999999925e+00 -3.9051173363685221e-01 -1.0403669047351969e-04 +2.1558874420833377e-01 +2.6710227329162507e+01 -1.6443343219216385e+03 -9.0833746667222455e+04 +1.3308309973374691e+07 
+6.6999999999999922e+00 -3.9051174168759467e-01 -1.3341934547685859e-04 +2.1591643099201857e-01 +2.7432629092804795e+01 -1.6724541704310186e+03 -9.4611446667522468e+04 +1.3474720275678046e+07 
+6.7999999999999918e+00 -3.9051175512821473e-01 -1.6444472396841319e-04 +2.1661030143095358e-01 +2.8181885164414290e+01 -1.7067304108782512e+03 -9.8513711558647832e+04 +1.3668539484505830e+07 
+6.8999999999999915e+00 -3.9051177338225135e-01 -1.9676882900770276e-04 +2.1763344690341402e-01 +2.8949730924841059e+01 -1.7464522446012991e+03 -1.0249643335486256e+05 +1.3886501385194045e+07 
+6.9999999999999911e+00 -3.9051179587414248e-01 -2.3004759653450163e-04 +2.1894905062950534e-01 +2.9727899123572826e+01 -1.7909103481813345e+03 -1.0651548682684377e+05 +1.4125345694562567e+07 
+7.0999999999999908e+00 -3.9051182202927182e-01 -2.6393689055598636e-04 +2.2052039256566019e-01 +3.0508119703763317e+01 -1.8393969531952032e+03 -1.1052672838375811e+05 +1.4381818389977558e+07 
+7.1999999999999904e+00 -3.9051185127398996e-01 -2.9809250144727879e-04 +2.2231085120243801e-01 +3.1282119736831763e+01 -1.8912058711120185e+03 -1.1448599563888877e+05 +1.4652671790937185e+07 
+7.2999999999999901e+00 -3.9051188303565326e-01 -3.3217014373368344e-04 +2.2428390746147669e-01 +3.2041623330494858e+01 -1.9456325563961127e+03 -1.1834910678817186e+05 +1.4934664816205101e+07 
+7.3999999999999897e+00 -3.9051191674267272e-01 -3.6582545095338142e-04 +2.2640314968525579e-01 +3.2778351457723922e+01 -2.0019741885199280e+03 -1.2207185955292780e+05 +1.5224563325722737e+07 
+7.4999999999999893e+00 -3.9051195182452908e-01 -3.9871397591898156e-04 +2.2863227515591625e-01 +3.3484021934994971e+01 -2.0595296941130450e+03 -1.2561003095869393e+05 +1.5519140195408648e+07 
+7.5999999999999890e+00 -3.9051198771182988e-01 -4.3049118564750889e-04 +2.3093509552710137e-01 +3.4150349255392456e+01 -2.1175998335025956e+03 -1.2891937630467377e+05 +1.5815175670228213e+07 
+7.6999999999999886e+00 -3.9051202383632588e-01 -4.6081245854499950e-04 +2.3327553877591828e-01 +3.4769044486700231e+01 -2.1754872331896299e+03 -1.3195562850920617e+05 +1.6109457493088629e+07 
+7.7999999999999883e+00 -3.9051205963096436e-01 -4.8933308284085212e-04 +2.3561765426760589e-01 +3.5331815189782247e+01 -2.2324964662911525e+03 -1.3467449752232598e+05 +1.6398781231886389e+07 
+7.8999999999999879e+00 -3.9051209452990909e-01 -5.1570825304424119e-04 +2.3792561469944429e-01 +3.5830365302112575e+01 -2.2879340812859991e+03 -1.3703166960468196e+05 +1.6679950381053170e+07 
+7.9999999999999876e+00 -3.9051212796842977e-01 -5.3959439183184552e-04 +2.4016351553544774e-01 +3.6256447024388429e+01 -2.3411023841626729e+03 -1.3898324157553710e+05 +1.6949730683852687e+07 
+8.0999999999999872e+00 -3.9051215950308837e-01 -5.6073391762834820e-04 +2.4229504391007248e-01 +3.6603904736782098e+01 -2.3912403184052228e+03 -1.4049734155079391e+05 +1.7204388009648480e+07 
+8.1999999999999869e+00 -3.9051218889899053e-01 -5.7915298931219422e-04 +2.4429868764999832e-01 +3.6873541662669354e+01 -2.4378870364026320e+03 -1.4157881104360940e+05 +1.7441608741015755e+07 
+8.2999999999999865e+00 -3.9051221591703728e-01 -5.9498824239350801e-04 +2.4616421118185433e-01 +3.7069364159041790e+01 -2.4809082188888951e+03 -1.4224988423628596e+05 +1.7660847313152827e+07 
+8.3999999999999861e+00 -3.9051224031944420e-01 -6.0837906723967144e-04 +2.4788192576462575e-01 +3.7195487828565199e+01 -2.5201865486935872e+03 -1.4253342062274512e+05 +1.7861652185415186e+07 
+8.4999999999999858e+00 -3.9051226186808652e-01 -6.1946481070570257e-04 +2.4944210361779881e-01 +3.7256027180279546e+01 -2.5556040936360200e+03 -1.4245227356398010e+05 +1.8043569463288091e+07 
+8.5999999999999854e+00 -3.9051228032446683e-01 -6.2838477502983681e-04 +2.5083497441296337e-01 +3.7255095606257079e+01 -2.5870422472352811e+03 -1.4202929017568429e+05 +1.8206142645445049e+07 
+8.6999999999999851e+00 -3.9051229544973459e-01 -6.3527821815728594e-04 +2.5205072770374187e-01 +3.7196805403930441e+01 -2.6143817783205941e+03 -1.4128731148609548e+05 +1.8348912876119412e+07 
+8.7999999999999847e+00 -3.9051230700464235e-01 -6.4028434984862064e-04 +2.5307950747364427e-01 +3.7085267676853086e+01 -2.6375027322717087e+03 -1.4024917189541229e+05 +1.8471418500608511e+07 
+8.8999999999999844e+00 -3.9051231474954418e-01 -6.4354233272532113e-04 +2.5391141250667604e-01 +3.6924592370201204e+01 -2.6562844460978763e+03 -1.3893769939132861e+05 +1.8573195165926401e+07 
+8.9999999999999840e+00 -3.9051231844437606e-01 -6.4519128018063481e-04 +2.5453649367385184e-01 +3.6718888226988909e+01 -2.6706054985094570e+03 -1.3737571533824361e+05 +1.8653775598027743e+07 
+9.0999999999999837e+00 -3.9051231784865198e-01 -6.4537025376456246e-04 +2.5494475379929488e-01 +3.6472262722758238e+01 -2.6803437144054624e+03 -1.3558603412318250e+05 +1.8712689650734618e+07 
+9.1999999999999833e+00 -3.9051231272142983e-01 -6.4421826496983568e-04 +2.5512614364254804e-01 +3.6188822125751692e+01 -2.6853760945807526e+03 -1.3359146352308558e+05 +1.8749463998409942e+07 
+9.2999999999999829e+00 -3.9051230282130756e-01 -6.4187427174939183e-04 +2.5507056134900830e-01 +3.5872671409352243e+01 -2.6855788085972804e+03 -1.3141480423309293e+05 +1.8763622119294517e+07 
+9.3999999999999826e+00 -3.9051228790640413e-01 -6.3847717598309683e-04 +2.5476785043912675e-01 +3.5527914190315073e+01 -2.6808271629801034e+03 -1.2907884953686279e+05 +1.8754684171492778e+07 
+9.4999999999999822e+00 -3.9051226773435888e-01 -6.3416582515157859e-04 +2.5420779979899438e-01 +3.5158652789223211e+01 -2.6709956060557865e+03 -1.2660638568589813e+05 +1.8722167037593659e+07 
+9.5999999999999819e+00 -3.9051224206229457e-01 -6.2907900971616597e-04 +2.5338013914557533e-01 +3.4768988162224900e+01 -2.6559576462517548e+03 -1.2402019152306695e+05 +1.8665583959252253e+07 
+9.6999999999999815e+00 -3.9051221064681552e-01 -6.2335546149554612e-04 +2.5227453923594800e-01 +3.4363019866719974e+01 -2.6355858632024601e+03 -1.2134303831482756e+05 +1.8584444617437072e+07 
+9.7999999999999812e+00 -3.9051217324397619e-01 -6.1713385189854353e-04 +2.5088060759488445e-01 +3.3944846027007451e+01 -2.6097518290337234e+03 -1.1859768959918802e+05 +1.8478254775828809e+07 
+9.8999999999999808e+00 -3.9051212960930942e-01 -6.1055279218059336e-04 +2.4918789289889373e-01 +3.3518563342914661e+01 -2.5783261997021650e+03 -1.1580690123330981e+05 +1.8346516742090229e+07 
+9.9999999999999805e+00 -3.9051207950025751e-01 -6.0374900572859858e-04 +2.4718641276738523e-01 +3.3088192089347402e+01 -2.5411943190048105e+03 -1.1299320547956334e+05 +1.8188796593768731e+07 
+1.0099999999999980e+01 -3.9051202280167641e-01 -5.9684575902099832e-04 +2.4487471291749693e-01 +3.2656926155793442e+01 -2.4984422551300599e+03 -1.1017510649387377e+05 +1.8005615530949503e+07 
