# field on trajectory
# s[mm] rx[mm] ry[mm] rz[mm] bx[T] by[T] bz[T]
0.0000000000000000e+00 +4.6467000000000001e+00 +0.0000000000000000e+00 +0.0000000000000000e+00 +3.0735566528216712e-02 -5.6279500698534835e-01 +4.0227658035813310e-03
1.0000000000000001e-01 +4.6466956910410087e+00 +0.0000000000000000e+00 +9.9999999876219145e-02 +3.0735651609942280e-02 -5.6279493738223030e-01 +4.0227010260376573e-03
2.0000000000000001e-01 +4.6466827641647690e+00 +0.0000000000000000e+00 +1.9999999900975329e-01 +3.0735769800547444e-02 -5.6279487043387177e-01 +4.0226350842801784e-03
3.0000000000000004e-01 +4.6466612193724028e+00 +0.0000000000000000e+00 +2.9999999665791766e-01 +3.0735918006124255e-02 -5.6279480644037405e-01 +4.0225680232339397e-03
4.0000000000000002e-01 +4.6466310566650488e+00 +0.0000000000000000e+00 +3.9999999207802778e-01 +3.0736093133426651e-02 -5.6279474570177879e-01 +4.0224998878065563e-03
5.0000000000000000e-01 +4.6465922760438616e+00 +0.0000000000000000e+00 +4.9999998452739941e-01 +3.0736292089779838e-02 -5.6279468851807557e-01 +4.0224307228993702e-03
5.9999999999999998e-01 +4.6465448775100038e+00 +0.0000000000000000e+00 +5.9999997326334853e-01 +3.0736511782989556e-02 -5.6279463518921535e-01 +4.0223605734186572e-03
6.9999999999999996e-01 +4.6464888610646433e+00 +0.0000000000000000e+00 +6.9999995754319144e-01 +3.0736749121251364e-02 -5.6279458601511845e-01 +4.0222894842867922e-03
7.9999999999999993e-01 +4.6464242267089499e+00 +0.0000000000000000e+00 +7.9999993662424440e-01 +3.0737001013059900e-02 -5.6279454129568607e-01 +4.0222175004534476e-03
8.9999999999999991e-01 +4.6463509744440872e+00 +0.0000000000000000e+00 +8.9999990976382405e-01 +3.0737264367118183e-02 -5.6279450133080955e-01 +4.0221446669067625e-03
9.9999999999999989e-01 +4.6462691042712114e+00 +0.0000000000000000e+00 +9.9999987621924724e-01 +3.0737536092246887e-02 -5.6279446642038189e-01 +4.0220710286845351e-03
1.0999999999999999e+00 +4.6461786161914640e+00 +0.0000000000000000e+00 +1.0999998352478308e+00 +3.0737813097293530e-02 -5.6279443686430708e-01 +4.0219966308854081e-03
1.2000000000000000e+00 +4.6460795102059693e+00 +0.0000000000000000e+00 +1.1999997861068918e+00 +3.0738092291041925e-02 -5.6279441296251131e-01 +4.0219215186800428e-03
1.3000000000000000e+00 +4.6459717863158296e+00 +0.0000000000000000e+00 +1.2999997280537472e+00 +3.0738370582121324e-02 -5.6279439501495176e-01 +4.0218457373223009e-03
1.4000000000000001e+00 +4.6458554445221187e+00 +0.0000000000000000e+00 +1.3999996603457143e+00 +3.0738644878915897e-02 -5.6279438332162912e-01 +4.0217693321604377e-03
1.5000000000000002e+00 +4.6457304848258802e+00 +0.0000000000000000e+00 +1.4999995822401102e+00 +3.0738912089473956e-02 -5.6279437818259559e-01 +4.0216923486482668e-03
1.6000000000000003e+00 +4.6455969072281196e+00 +0.0000000000000000e+00 +1.5999994929942520e+00 +3.0739169121417487e-02 -5.6279437989796721e-01 +4.0216148323563381e-03
1.7000000000000004e+00 +4.6454547117298031e+00 +0.0000000000000000e+00 +1.6999993918654570e+00 +3.0739412881851509e-02 -5.6279438876793175e-01 +4.0215368289831235e-03
1.8000000000000005e+00 +4.6453038983318500e+00 +0.0000000000000000e+00 +1.7999992781110421e+00 +3.0739640277273595e-02 -5.6279440509276157e-01 +4.0214583843661798e-03
1.9000000000000006e+00 +4.6451444670351298e+00 +0.0000000000000000e+00 +1.8999991509883243e+00 +3.0739848213483446e-02 -5.6279442917282207e-01 +4.0213795444933222e-03
2.0000000000000004e+00 +4.6449764178404580e+00 +0.0000000000000000e+00 +1.9999990097546203e+00 +3.0740033595492402e-02 -5.6279446130858202e-01 +4.0213003555137922e-03
2.1000000000000005e+00 +4.6447997507485903e+00 +0.0000000000000000e+00 +2.0999988536672465e+00 +3.0740193927165340e-02 -5.6279450153786459e-01 +4.0212208761494549e-03
2.2000000000000006e+00 +4.6446144657602240e+00 +0.0000000000000000e+00 +2.1999986819835193e+00 +3.0740329110566456e-02 -5.6279454884745994e-01 +4.0211412148412314e-03
2.3000000000000007e+00 +4.6444205628760118e+00 +0.0000000000000000e+00 +2.2999984939607550e+00 +3.0740439646958315e-02 -5.6279460196128328e-01 +4.0210614924330208e-03
2.4000000000000008e+00 +4.6442180420965835e+00 +0.0000000000000000e+00 +2.3999982888562688e+00 +3.0740526037042044e-02 -5.6279465960311392e-01 +4.0209818297435749e-03
2.5000000000000009e+00 +4.6440069034225608e+00 +0.0000000000000000e+00 +2.4999980659273766e+00 +3.0740588780925900e-02 -5.6279472049657708e-01 +4.0209023475545266e-03
2.6000000000000010e+00 +4.6437871468545815e+00 +0.0000000000000000e+00 +2.5999978244313939e+00 +3.0740628378093941e-02 -5.6279478336512678e-01 +4.0208231665984241e-03
2.7000000000000011e+00 +4.6435587723933169e+00 +0.0000000000000000e+00 +2.6999975636256357e+00 +3.0740645327374885e-02 -5.6279484693202775e-01 +4.0207444075467729e-03
2.8000000000000012e+00 +4.6433217800394910e+00 +0.0000000000000000e+00 +2.7999972827674173e+00 +3.0740640126910801e-02 -5.6279490992033798e-01 +4.0206661909980576e-03
2.9000000000000012e+00 +4.6430761697939014e+00 +0.0000000000000000e+00 +2.8999969811140534e+00 +3.0740613274125989e-02 -5.6279497105289145e-01 +4.0205886374657818e-03
3.0000000000000013e+00 +4.6428219416574379e+00 +0.0000000000000000e+00 +2.9999966579228592e+00 +3.0740565265695897e-02 -5.6279502905227907e-01 +4.0205118673664842e-03
3.1000000000000014e+00 +4.6425590956311016e+00 +0.0000000000000000e+00 +3.0999963124511494e+00 +3.0740496597516053e-02 -5.6279508264083267e-01 +4.0204360010077629e-03
3.2000000000000015e+00 +4.6422876317160258e+00 +0.0000000000000000e+00 +3.1999959439562393e+00 +3.0740407764671102e-02 -5.6279513054060692e-01 +4.0203611585763023e-03
3.3000000000000016e+00 +4.6420075499134947e+00 +0.0000000000000000e+00 +3.2999955516954440e+00 +3.0740299261403842e-02 -5.6279517147336111e-01 +4.0202874601258844e-03
3.4000000000000017e+00 +4.6417188502249633e+00 +0.0000000000000000e+00 +3.3999951349260793e+00 +3.0740171581084420e-02 -5.6279520416054274e-01 +4.0202150255653985e-03
3.5000000000000018e+00 +4.6414215326520774e+00 +0.0000000000000000e+00 +3.4999946929054615e+00 +3.0740025216179502e-02 -5.6279522732326914e-01 +4.0201439746468583e-03
3.6000000000000019e+00 +4.6411155971966913e+00 +0.0000000000000000e+00 +3.5999942248909069e+00 +3.0739860658221530e-02 -5.6279523968231115e-01 +4.0200744269534112e-03
3.7000000000000020e+00 +4.6408010438608898e+00 +0.0000000000000000e+00 +3.6999937301397323e+00 +3.0739678397778091e-02 -5.6279523995807412e-01 +4.0200065018873325e-03
3.8000000000000020e+00 +4.6404778726470060e+00 +0.0000000000000000e+00 +3.7999932079092562e+00 +3.0739478924421353e-02 -5.6279522687058237e-01 +4.0199403186580284e-03
3.9000000000000021e+00 +4.6401460835576431e+00 +0.0000000000000000e+00 +3.8999926574567967e+00 +3.0739262726697508e-02 -5.6279519913946097e-01 +4.0198759962700318e-03
4.0000000000000018e+00 +4.6398056765956905e+00 +0.0000000000000000e+00 +3.9999920780396740e+00 +3.0739030292096341e-02 -5.6279515548391812e-01 +4.0198136535109993e-03
4.1000000000000014e+00 +4.6394566517643465e+00 +0.0000000000000000e+00 +4.0999914689152090e+00 +3.0738782459922485e-02 -5.6279509502692848e-01 +4.0197533310861290e-03
4.2000000000000011e+00 +4.6390990090671282e+00 +0.0000000000000000e+00 +4.1999908293407238e+00 +3.0738521481161366e-02 -5.6279501850846381e-01 +4.0196947580474172e-03
4.3000000000000007e+00 +4.6387327485078620e+00 +0.0000000000000000e+00 +4.2999901585735429e+00 +3.0738249961144212e-02 -5.6279492707316803e-01 +4.0196375855185941e-03
4.4000000000000004e+00 +4.6383578700906662e+00 +0.0000000000000000e+00 +4.3999894558709904e+00 +3.0737970506808040e-02 -5.6279482186606089e-01 +4.0195814646058550e-03
4.5000000000000000e+00 +4.6379743738199348e+00 +0.0000000000000000e+00 +4.4999887204903928e+00 +3.0737685726818263e-02 -5.6279470403256859e-01 +4.0195260463997051e-03
4.5999999999999996e+00 +4.6375822597003191e+00 +0.0000000000000000e+00 +4.5999879516890783e+00 +3.0737398231691193e-02 -5.6279457471855265e-01 +4.0194709819768451e-03
4.6999999999999993e+00 +4.6371815277367094e+00 +0.0000000000000000e+00 +4.6999871487243761e+00 +3.0737110633916268e-02 -5.6279443507033955e-01 +4.0194159224020481e-03
4.7999999999999989e+00 +4.6367721779342190e+00 +0.0000000000000000e+00 +4.7999863108536172e+00 +3.0736825548078151e-02 -5.6279428623475269e-01 +4.0193605187300628e-03
4.8999999999999986e+00 +4.6363542102981663e+00 +0.0000000000000000e+00 +4.8999854373341325e+00 +3.0736545590978576e-02 -5.6279412935914008e-01 +4.0193044220075448e-03
4.9999999999999982e+00 +4.6359276248340553e+00 +0.0000000000000000e+00 +4.9999845274232566e+00 +3.0736273381758036e-02 -5.6279396559140538e-01 +4.0192472832749895e-03
5.0999999999999979e+00 +4.6354924215475606e+00 +0.0000000000000000e+00 +5.0999835803783240e+00 +3.0736011542017137e-02 -5.6279379608003688e-01 +4.0191887535686952e-03
5.1999999999999975e+00 +4.6350486004445086e+00 +0.0000000000000000e+00 +5.1999825954566710e+00 +3.0735762695937897e-02 -5.6279362197413840e-01 +4.0191284839227485e-03
5.2999999999999972e+00 +4.6345961615308600e+00 +0.0000000000000000e+00 +5.2999815719156347e+00 +3.0735529470404588e-02 -5.6279344442345702e-01 +4.0190661253710147e-03
5.3999999999999968e+00 +4.6341351048126924e+00 +0.0000000000000000e+00 +5.3999805090125541e+00 +3.0735314495124528e-02 -5.6279326457841494e-01 +4.0190013289491764e-03
5.4999999999999964e+00 +4.6336654302961824e+00 +0.0000000000000000e+00 +5.4999794060047691e+00 +3.0735120402748489e-02 -5.6279308359013658e-01 +4.0189337456967645e-03
5.5999999999999961e+00 +4.6331871379875880e+00 +0.0000000000000000e+00 +5.5999782621496195e+00 +3.0734949828990905e-02 -5.6279290261047965e-01 +4.0188630266592366e-03
5.6999999999999957e+00 +4.6327002278932312e+00 +0.0000000000000000e+00 +5.6999770767044478e+00 +3.0734805412749734e-02 -5.6279272279206360e-01 +4.0187888228900622e-03
5.7999999999999954e+00 +4.6322047000194804e+00 +0.0000000000000000e+00 +5.7999758489265973e+00 +3.0734689796226164e-02 -5.6279254528829958e-01 +4.0187107854528425e-03
5.8999999999999950e+00 +4.6317005543727321e+00 +0.0000000000000000e+00 +5.8999745780734116e+00 +3.0734605625043852e-02 -5.6279237125341830e-01 +4.0186285654234509e-03
5.9999999999999947e+00 +4.6311877909593946e+00 +0.0000000000000000e+00 +5.9999732634022349e+00 +3.0734555548368042e-02 -5.6279220184250023e-01 +4.0185418138921998e-03
6.0999999999999943e+00 +4.6306664097858681e+00 +0.0000000000000000e+00 +6.0999719041704124e+00 +3.0734541293903551e-02 -5.6279203797218003e-01 +4.0184503180818705e-03
6.1999999999999940e+00 +4.6301364108585341e+00 +0.0000000000000000e+00 +6.1999704996352891e+00 +3.0734560887936500e-02 -5.6279187960162746e-01 +4.0183544101459441e-03
6.2999999999999936e+00 +4.6295977941837547e+00 +0.0000000000000000e+00 +6.2999690490542113e+00 +3.0734611429149725e-02 -5.6279172645038700e-01 +4.0182545586257036e-03
6.3999999999999932e+00 +4.6290505597678751e+00 +0.0000000000000000e+00 +6.3999675516845258e+00 +3.0734690014712341e-02 -5.6279157823800574e-01 +4.0181512321218653e-03
6.4999999999999929e+00 +4.6284947076172296e+00 +0.0000000000000000e+00 +6.4999660067835805e+00 +3.0734793740189968e-02 -5.6279143468402548e-01 +4.0180448992977371e-03
6.5999999999999925e+00 +4.6279302377381448e+00 +0.0000000000000000e+00 +6.5999644136087223e+00 +3.0734919699455077e-02 -5.6279129550797502e-01 +4.0179360288823233e-03
6.6999999999999922e+00 +4.6273571501369446e+00 +0.0000000000000000e+00 +6.6999627714173000e+00 +3.0735064984597559e-02 -5.6279116042936428e-01 +4.0178250896734198e-03
6.7999999999999918e+00 +4.6267754448199536e+00 +0.0000000000000000e+00 +6.7999610794666623e+00 +3.0735226685835362e-02 -5.6279102916767465e-01 +4.0177125505406778e-03
6.8999999999999915e+00 +4.6261851217935028e+00 +0.0000000000000000e+00 +6.8999593370141588e+00 +3.0735401891425453e-02 -5.6279090144235422e-01 +4.0175988804286430e-03
6.9999999999999911e+00 +4.6255861810639320e+00 +0.0000000000000000e+00 +6.9999575433171399e+00 +3.0735587687574915e-02 -5.6279077697280766e-01 +4.0174845483597673e-03
7.0999999999999908e+00 +4.6249786226375962e+00 +0.0000000000000000e+00 +7.0999556976329554e+00 +3.0735781158352193e-02 -5.6279065547839136e-01 +4.0173700234373971e-03
7.1999999999999904e+00 +4.6243624465208679e+00 +0.0000000000000000e+00 +7.1999537992189566e+00 +3.0735979385598626e-02 -5.6279053667840473e-01 +4.0172557748487251e-03
7.2999999999999901e+00 +4.6237376527201430e+00 +0.0000000000000000e+00 +7.2999518473324958e+00 +3.0736179448840169e-02 -5.6279042029208248e-01 +4.0171422718677076e-03
7.3999999999999897e+00 +4.6231042412418439e+00 +0.0000000000000000e+00 +7.3999498412309244e+00 +3.0736378425199284e-02 -5.6279030603858804e-01 +4.0170299838579752e-03
7.4999999999999893e+00 +4.6224622120924241e+00 +0.0000000000000000e+00 +7.4999477801715964e+00 +3.0736573389307121e-02 -5.6279019363700622e-01 +4.0169193802756849e-03
7.5999999999999890e+00 +4.6218115652783744e+00 +0.0000000000000000e+00 +7.5999456634118649e+00 +3.0736761413215893e-02 -5.6279008280633580e-01 +4.0168109306723586e-03
7.6999999999999886e+00 +4.6211523008062239e+00 +0.0000000000000000e+00 +7.6999434902090851e+00 +3.0736939566311450e-02 -5.6278997326548164e-01 +4.0167051046976696e-03
7.7999999999999883e+00 +4.6204844186825467e+00 +0.0000000000000000e+00 +7.7999412598206117e+00 +3.0737104915226202e-02 -5.6278986473324766e-01 +4.0166023721022268e-03
7.8999999999999879e+00 +4.6198079189139643e+00 +0.0000000000000000e+00 +7.8999389715038006e+00 +3.0737254523752144e-02 -5.6278975692832967e-01 +4.0165032027402910e-03
7.9999999999999876e+00 +4.6191228015071530e+00 +0.0000000000000000e+00 +7.9999366245160086e+00 +3.0737385452754284e-02 -5.6278964956930833e-01 +4.0164080665724732e-03
8.0999999999999872e+00 +4.6184290664688454e+00 +0.0000000000000000e+00 +8.0999342181145941e+00 +3.0737495346481510e-02 -5.6278954240214141e-01 +4.0163173134879571e-03
8.1999999999999869e+00 +4.6177267138058342e+00 +0.0000000000000000e+00 +8.1999317515569139e+00 +3.0737584196792511e-02 -5.6278943528254255e-01 +4.0162308118349421e-03
8.2999999999999865e+00 +4.6170157435249761e+00 +0.0000000000000000e+00 +8.2999292241003282e+00 +3.0737652582823884e-02 -5.6278932809277538e-01 +4.0161483093932096e-03
8.3999999999999861e+00 +4.6162961556331927e+00 +0.0000000000000000e+00 +8.3999266350021973e+00 +3.0737701082493005e-02 -5.6278922071393134e-01 +4.0160695540100598e-03
8.4999999999999858e+00 +4.6155679501374722e+00 +0.0000000000000000e+00 +8.4999239835198814e+00 +3.0737730272470818e-02 -5.6278911302589241e-01 +4.0159942936019216e-03
8.5999999999999854e+00 +4.6148311270448721e+00 +0.0000000000000000e+00 +8.5999212689107427e+00 +3.0737740728154758e-02 -5.6278900490729522e-01 +4.0159222761559470e-03
8.6999999999999851e+00 +4.6140856863625208e+00 +0.0000000000000000e+00 +8.6999184904321432e+00 +3.0737733023641859e-02 -5.6278889623549477e-01 +4.0158532497316024e-03
8.7999999999999847e+00 +4.6133316280976180e+00 +0.0000000000000000e+00 +8.7999156473414484e+00 +3.0737707731701810e-02 -5.6278878688652656e-01 +4.0157869624622604e-03
8.8999999999999844e+00 +4.6125689522574387e+00 +0.0000000000000000e+00 +8.8999127388960222e+00 +3.0737665423750390e-02 -5.6278867673507205e-01 +4.0157231625568114e-03
8.9999999999999840e+00 +4.6117976588493335e+00 +0.0000000000000000e+00 +8.9999097643532320e+00 +3.0737606669822792e-02 -5.6278856565442337e-01 +4.0156615983012412e-03
9.0999999999999837e+00 +4.6110177478807319e+00 +0.0000000000000000e+00 +9.0999067229704433e+00 +3.0737532038547274e-02 -5.6278845351644369e-01 +4.0156020180602391e-03
9.1999999999999833e+00 +4.6102292193591436e+00 +0.0000000000000000e+00 +9.1999036140050237e+00 +3.0737442097118747e-02 -5.6278834019153512e-01 +4.0155441702787887e-03
9.2999999999999829e+00 +4.6094320732921599e+00 +0.0000000000000000e+00 +9.2999004367143421e+00 +3.0737337411272690e-02 -5.6278822554860075e-01 +4.0154878034837716e-03
9.3999999999999826e+00 +4.6086263096874562e+00 +0.0000000000000000e+00 +9.3998971903557695e+00 +3.0737218545259161e-02 -5.6278810945500934e-01 +4.0154326662855616e-03
9.4999999999999822e+00 +4.6078119285527954e+00 +0.0000000000000000e+00 +9.4998938741866770e+00 +3.0737086061816743e-02 -5.6278799177655936e-01 +4.0153785073796184e-03
9.5999999999999819e+00 +4.6069889298960272e+00 +0.0000000000000000e+00 +9.5998904874644371e+00 +3.0736940522146990e-02 -5.6278787237744443e-01 +4.0153250755480922e-03
9.6999999999999815e+00 +4.6061573137250917e+00 +0.0000000000000000e+00 +9.6998870294464243e+00 +3.0736782485888726e-02 -5.6278775112021640e-01 +4.0152721196614278e-03
9.7999999999999812e+00 +4.6053170800480228e+00 +0.0000000000000000e+00 +9.7998834993900132e+00 +3.0736612511092613e-02 -5.6278762786575109e-01 +4.0152193886799541e-03
9.8999999999999808e+00 +4.6044682288729470e+00 +0.0000000000000000e+00 +9.8998798965525800e+00 +3.0736431154195876e-02 -5.6278750247321241e-01 +4.0151666316554898e-03
9.9999999999999805e+00 +4.6036107602080891e+00 +0.0000000000000000e+00 +9.9998762201915010e+00 +3.0736238969997141e-02 -5.6278737480001717e-01 +4.0151135977329498e-03
1.0099999999999980e+01 +4.6027446740617730e+00 +0.0000000000000000e+00 +1.0099872469564156e+01 +3.0736036743349349e-02 -5.6278724472289443e-01 +4.0150600576665000e-03
1.0199999999999980e+01 +4.6018699704424222e+00 +0.0000000000000000e+00 +1.0199868643927926e+01 +3.0735826189668972e-02 -5.6278711220241640e-01 +4.0150058685689289e-03
1.0299999999999979e+01 +4.6009866493585614e+00 +0.0000000000000000e+00 +1.0299864742540192e+01 +3.0735609261486205e-02 -5.6278697722126247e-01 +4.0149509090026021e-03
1.0399999999999979e+01 +4.6000947108188184e+00 +0.0000000000000000e+00 +1.0399860764658337e+01 +3.0735387915587293e-02 -5.6278683976324162e-01 +4.0148950572693742e-03
1.0499999999999979e+01 +4.5991941548319222e+00 +0.0000000000000000e+00 +1.0499856709539745e+01 +3.0735164113122677e-02 -5.6278669981332952e-01 +4.0148381914042767e-03
1.0599999999999978e+01 +4.5982849814067031e+00 +0.0000000000000000e+00 +1.0599852576441803e+01 +3.0734939819714719e-02 -5.6278655735769911e-01 +4.0147801891692375e-03
1.0699999999999978e+01 +4.5973671905520952e+00 +0.0000000000000000e+00 +1.0699848364621898e+01 +3.0734717005564918e-02 -5.6278641238375693e-01 +4.0147209280468332e-03
1.0799999999999978e+01 +4.5964407822771340e+00 +0.0000000000000000e+00 +1.0799844073337418e+01 +3.0734497645560785e-02 -5.6278626488017613e-01 +4.0146602852340922e-03
1.0899999999999977e+01 +4.5955057565909581e+00 +0.0000000000000000e+00 +1.0899839701845755e+01 +3.0734283719382145e-02 -5.6278611483693075e-01 +4.0145981376363306e-03
1.0999999999999977e+01 +4.5945621135028087e+00 +0.0000000000000000e+00 +1.0999835249404301e+01 +3.0734077211607116e-02 -5.6278596224532906e-01 +4.0145343618610274e-03
1.1099999999999977e+01 +4.5936098530220315e+00 +0.0000000000000000e+00 +1.1099830715270448e+01 +3.0733880111817491e-02 -5.6278580709804737e-01 +4.0144688342117554e-03
1.1199999999999976e+01 +4.5926489751580739e+00 +0.0000000000000000e+00 +1.1199826098701593e+01 +3.0733694414703652e-02 -5.6278564938916387e-01 +4.0144014306821400e-03
1.1299999999999976e+01 +4.5916794799204865e+00 +0.0000000000000000e+00 +1.1299821398955132e+01 +3.0733522120169093e-02 -5.6278548911419202e-01 +4.0143320269498657e-03
1.1399999999999975e+01 +4.5907013673189230e+00 +0.0000000000000000e+00 +1.1399816615288463e+01 +3.0733365233434350e-02 -5.6278532627011391e-01 +4.0142604983707296e-03
1.1499999999999975e+01 +4.5897146373631417e+00 +0.0000000000000000e+00 +1.1499811746958988e+01 +3.0733225765140423e-02 -5.6278516085541386e-01 +4.0141867199727389e-03
1.1599999999999975e+01 +4.5887192900630032e+00 +0.0000000000000000e+00 +1.1599806793224108e+01 +3.0733105731451764e-02 -5.6278499287011230e-01 +4.0141105664502500e-03
1.1699999999999974e+01 +4.5877153254284719e+00 +0.0000000000000000e+00 +1.1699801753341225e+01 +3.0733007154158654e-02 -5.6278482231579718e-01 +4.0140319121581653e-03
1.1799999999999974e+01 +4.5867027434696146e+00 +0.0000000000000000e+00 +1.1799796626567744e+01 +3.0732932060779084e-02 -5.6278464919565907e-01 +4.0139506311061566e-03
