# trajectory
# s[mm] rx[mm] ry[mm] rz[mm] px[rad] py[rad] pz[rad]
0.0000000000000000e+00 -4.6467000000000001e+00 +0.0000000000000000e+00 +0.0000000000000000e+00 +0.0000000000000000e+00 +0.0000000000000000e+00 +1.0000000000000000e+00
-1.0000000000000001e-01 -4.6466956847213661e+00 +0.0000000000000000e+00 -9.9999999875855811e-02 -8.6305574238676244e-05 +0.0000000000000000e+00 +9.9999999627567393e-01
-2.0000000000000001e-01 -4.6466827388848353e+00 +0.0000000000000000e+00 -1.9999999900684634e-01 -1.7261115799398720e-04 +0.0000000000000000e+00 +9.9999998510269394e-01
-3.0000000000000004e-01 -4.6466611624894387e+00 +0.0000000000000000e+00 -2.9999999664810606e-01 -2.5891675161539003e-04 +0.0000000000000000e+00 +9.9999996648105727e-01
-4.0000000000000002e-01 -4.6466309555341736e+00 +0.0000000000000000e+00 -3.9999999205476910e-01 -3.4522235541307783e-04 +0.0000000000000000e+00 +9.9999994041076090e-01
-5.0000000000000000e-01 -4.6465921180180079e+00 +0.0000000000000000e+00 -4.9999998448196942e-01 -4.3152796965798592e-04 +0.0000000000000000e+00 +9.9999990689180140e-01
-5.9999999999999998e-01 -4.6465446499398855e+00 +0.0000000000000000e+00 -5.9999997318484044e-01 -5.1783359458179795e-04 +0.0000000000000000e+00 +9.9999986592417522e-01
-6.9999999999999996e-01 -4.6464885512987291e+00 +0.0000000000000000e+00 -6.9999995741851539e-01 -6.0413923037695109e-04 +0.0000000000000000e+00 +9.9999981750787859e-01
-7.9999999999999993e-01 -4.6464238220934426e+00 +0.0000000000000000e+00 -7.9999993643812695e-01 -6.9044487719664032e-04 +0.0000000000000000e+00 +9.9999976164290749e-01
-8.9999999999999991e-01 -4.6463504623229186e+00 +0.0000000000000000e+00 -8.9999990949880759e-01 -7.7675053515482246e-04 +0.0000000000000000e+00 +9.9999969832925772e-01
-9.9999999999999989e-01 -4.6462684719860379e+00 +0.0000000000000000e+00 -9.9999987585568917e-01 -8.6305620432621920e-04 +0.0000000000000000e+00 +9.9999962756692484e-01
-1.0999999999999999e+00 -4.6461778510816778e+00 +0.0000000000000000e+00 -1.0999998347639031e+00 -9.4936188474631974e-04 +0.0000000000000000e+00 +9.9999954935590452e-01
-1.2000000000000000e+00 -4.6460785996087131e+00 +0.0000000000000000e+00 -1.1999997854785804e+00 -1.0356675764113825e-03 +0.0000000000000000e+00 +9.9999946369619197e-01
-1.3000000000000000e+00 -4.6459707175660219e+00 +0.0000000000000000e+00 -1.2999997272548516e+00 -1.1219732792784359e-03 +0.0000000000000000e+00 +9.9999937058778243e-01
-1.4000000000000001e+00 -4.6458542049524869e+00 +0.0000000000000000e+00 -1.3999996593478468e+00 -1.2082789932652792e-03 +0.0000000000000000e+00 +9.9999927003067102e-01
-1.5000000000000002e+00 -4.6457290617670024e+00 +0.0000000000000000e+00 -1.4999995810126956e+00 -1.2945847182504820e-03 +0.0000000000000000e+00 +9.9999916202485273e-01
-1.6000000000000003e+00 -4.6455952880084759e+00 +0.0000000000000000e+00 -1.5999994915045270e+00 -1.3808904540733831e-03 +0.0000000000000000e+00 +9.9999904657032257e-01
-1.7000000000000004e+00 -4.6454528836758335e+00 +0.0000000000000000e+00 -1.6999993900784696e+00 -1.4671962005340894e-03 +0.0000000000000000e+00 +9.9999892366707543e-01
-1.8000000000000005e+00 -4.6453018487680229e+00 +0.0000000000000000e+00 -1.7999992759896513e+00 -1.5535019573934725e-03 +0.0000000000000000e+00 +9.9999879331510622e-01
-1.9000000000000006e+00 -4.6451421832840172e+00 +0.0000000000000000e+00 -1.8999991484931997e+00 -1.6398077243731670e-03 +0.0000000000000000e+00 +9.9999865551440981e-01
-2.0000000000000004e+00 -4.6449738872228208e+00 +0.0000000000000000e+00 -1.9999990068442421e+00 -1.7261135011555652e-03 +0.0000000000000000e+00 +9.9999851026498099e-01
-2.1000000000000005e+00 -4.6447969605834709e+00 +0.0000000000000000e+00 -2.0999988502979048e+00 -1.8124192873796516e-03 +0.0000000000000000e+00 +9.9999835756681466e-01
-2.2000000000000006e+00 -4.6446114033650447e+00 +0.0000000000000000e+00 -2.1999986781093135e+00 -1.8987250825952089e-03 +0.0000000000000000e+00 +9.9999819741990581e-01
-2.3000000000000007e+00 -4.6444172155666710e+00 +0.0000000000000000e+00 -2.2999984895335941e+00 -1.9850308862170304e-03 +0.0000000000000000e+00 +9.9999802982424968e-01
-2.4000000000000008e+00 -4.6442143971875449e+00 +0.0000000000000000e+00 -2.3999982838258718e+00 -2.0713366975207621e-03 +0.0000000000000000e+00 +9.9999785477984182e-01
-2.5000000000000009e+00 -4.6440029482269392e+00 +0.0000000000000000e+00 -2.4999980602412708e+00 -2.1576425156429090e-03 +0.0000000000000000e+00 +9.9999767228667824e-01
-2.6000000000000010e+00 -4.6437828686842222e+00 +0.0000000000000000e+00 -2.5999978180349155e+00 -2.2439483395808413e-03 +0.0000000000000000e+00 +9.9999748234475538e-01
-2.7000000000000011e+00 -4.6435541585588673e+00 +0.0000000000000000e+00 -2.6999975564619296e+00 -2.3302541681928016e-03 +0.0000000000000000e+00 +9.9999728495407014e-01
-2.8000000000000012e+00 -4.6433168178504705e+00 +0.0000000000000000e+00 -2.7999972747774371e+00 -2.4165600001979132e-03 +0.0000000000000000e+00 +9.9999708011461996e-01
-2.9000000000000012e+00 -4.6430708465587616e+00 +0.0000000000000000e+00 -2.8999969722365613e+00 -2.5028658341761868e-03 +0.0000000000000000e+00 +9.9999686782640296e-01
-3.0000000000000013e+00 -4.6428162446836208e+00 +0.0000000000000000e+00 -2.9999966480944256e+00 -2.5891716685685316e-03 +0.0000000000000000e+00 +9.9999664808941779e-01
-3.1000000000000014e+00 -4.6425530122250906e+00 +0.0000000000000000e+00 -3.0999963016061529e+00 -2.6754775016767634e-03 +0.0000000000000000e+00 +9.9999642090366414e-01
-3.2000000000000015e+00 -4.6422811491833897e+00 +0.0000000000000000e+00 -3.1999959320268663e+00 -2.7617833316636140e-03 +0.0000000000000000e+00 +9.9999618626914233e-01
-3.3000000000000016e+00 -4.6420006555589275e+00 +0.0000000000000000e+00 -3.2999955386116890e+00 -2.8480891565527437e-03 +0.0000000000000000e+00 +9.9999594418585347e-01
-3.4000000000000017e+00 -4.6417115313523194e+00 +0.0000000000000000e+00 -3.3999951206157446e+00 -2.9343949742287505e-03 +0.0000000000000000e+00 +9.9999569465379978e-01
-3.5000000000000018e+00 -4.6414137765643977e+00 +0.0000000000000000e+00 -3.4999946772941568e+00 -3.0207007824371835e-03 +0.0000000000000000e+00 +9.9999543767298427e-01
-3.6000000000000019e+00 -4.6411073911962273e+00 +0.0000000000000000e+00 -3.5999942079020495e+00 -3.1070065787845544e-03 +0.0000000000000000e+00 +9.9999517324341114e-01
-3.7000000000000020e+00 -4.6407923752491200e+00 +0.0000000000000000e+00 -3.6999937116945474e+00 -3.1933123607383509e-03 +0.0000000000000000e+00 +9.9999490136508562e-01
-3.8000000000000020e+00 -4.6404687287246480e+00 +0.0000000000000000e+00 -3.7999931879267752e+00 -3.2796181256270498e-03 +0.0000000000000000e+00 +9.9999462203801404e-01
-3.9000000000000021e+00 -4.6401364516246568e+00 +0.0000000000000000e+00 -3.8999926358538590e+00 -3.3659238706401323e-03 +0.0000000000000000e+00 +9.9999433526220416e-01
-4.0000000000000018e+00 -4.6397955439512808e+00 +0.0000000000000000e+00 -3.9999920547309253e+00 -3.4522295928280972e-03 +0.0000000000000000e+00 +9.9999404103766487e-01
-4.1000000000000014e+00 -4.6394460057069544e+00 +0.0000000000000000e+00 -4.0999914438131011e+00 -3.5385352891149423e-03 +0.0000000000000000e+00 +9.9999373936440639e-01
-4.2000000000000011e+00 -4.6390878368944231e+00 +0.0000000000000000e+00 -4.1999908023555159e+00 -3.6248409564353153e-03 +0.0000000000000000e+00 +9.9999343024243970e-01
-4.3000000000000007e+00 -4.6387210375167305e+00 +0.0000000000000000e+00 -4.2999901296132990e+00 -3.7111465918716630e-03 +0.0000000000000000e+00 +9.9999311367177635e-01
-4.4000000000000004e+00 -4.6383456075772038e+00 +0.0000000000000000e+00 -4.3999894248415812e+00 -3.7974521926666728e-03 +0.0000000000000000e+00 +9.9999278965242788e-01
-4.5000000000000000e+00 -4.6379615470794384e+00 +0.0000000000000000e+00 -4.4999886872954953e+00 -3.8837577562232397e-03 +0.0000000000000000e+00 +9.9999245818440619e-01
-4.5999999999999996e+00 -4.6375688560272819e+00 +0.0000000000000000e+00 -4.5999879162301740e+00 -3.9700632801044295e-03 +0.0000000000000000e+00 +9.9999211926772325e-01
-4.6999999999999993e+00 -4.6371675344248162e+00 +0.0000000000000000e+00 -4.6999871109007518e+00 -4.0563687620334410e-03 +0.0000000000000000e+00 +9.9999177290239083e-01
-4.7999999999999989e+00 -4.6367575822763438e+00 +0.0000000000000000e+00 -4.7999862705623642e+00 -4.1426741998935642e-03 +0.0000000000000000e+00 +9.9999141908842093e-01
-4.8999999999999986e+00 -4.6363389995863713e+00 +0.0000000000000000e+00 -4.8999853944701481e+00 -4.2289795917281403e-03 +0.0000000000000000e+00 +9.9999105782582531e-01
-4.9999999999999982e+00 -4.6359117863595927e+00 +0.0000000000000000e+00 -4.9999844818792418e+00 -4.3152849357405145e-03 +0.0000000000000000e+00 +9.9999068911461553e-01
-5.0999999999999979e+00 -4.6354759426008725e+00 +0.0000000000000000e+00 -5.0999835320447842e+00 -4.4015902302939908e-03 +0.0000000000000000e+00 +9.9999031295480301e-01
-5.1999999999999975e+00 -4.6350314683152316e+00 +0.0000000000000000e+00 -5.1999825442219159e+00 -4.4878954739117809e-03 +0.0000000000000000e+00 +9.9998992934639874e-01
-5.2999999999999972e+00 -4.6345783635078313e+00 +0.0000000000000000e+00 -5.2999815176657776e+00 -4.5742006652769538e-03 +0.0000000000000000e+00 +9.9998953828941339e-01
-5.3999999999999968e+00 -4.6341166281839561e+00 +0.0000000000000000e+00 -5.3999804516315129e+00 -4.6605058032323839e-03 +0.0000000000000000e+00 +9.9998913978385706e-01
-5.4999999999999964e+00 -4.6336462623489982e+00 +0.0000000000000000e+00 -5.4999793453742640e+00 -4.7468108867806938e-03 +0.0000000000000000e+00 +9.9998873382973952e-01
-5.5999999999999961e+00 -4.6331672660084413e+00 +0.0000000000000000e+00 -5.5999781981491754e+00 -4.8331159150841949e-03 +0.0000000000000000e+00 +9.9998832042706975e-01
-5.6999999999999957e+00 -4.6326796391678453e+00 +0.0000000000000000e+00 -5.6999770092113931e+00 -4.9194208874648307e-03 +0.0000000000000000e+00 +9.9998789957585610e-01
-5.7999999999999954e+00 -4.6321833818328297e+00 +0.0000000000000000e+00 -5.7999757778160621e+00 -5.0057258034041123e-03 +0.0000000000000000e+00 +9.9998747127610632e-01
-5.8999999999999950e+00 -4.6316784940090576e+00 +0.0000000000000000e+00 -5.8999745032183295e+00 -5.0920306625430551e-03 +0.0000000000000000e+00 +9.9998703552782731e-01
-5.9999999999999947e+00 -4.6311649757022213e+00 +0.0000000000000000e+00 -5.9999731846733431e+00 -5.1783354646821123e-03 +0.0000000000000000e+00 +9.9998659233102505e-01
-6.0999999999999943e+00 -4.6306428269180229e+00 +0.0000000000000000e+00 -6.0999718214362506e+00 -5.2646402097737219e-03 +0.0000000000000000e+00 +9.9998614168570465e-01
-6.1999999999999940e+00 -4.6301120476621671e+00 +0.0000000000000000e+00 -6.1999704127622000e+00 -5.3509448978409802e-03 +0.0000000000000000e+00 +9.9998568359187068e-01
-6.2999999999999936e+00 -4.6295726379403552e+00 +0.0000000000000000e+00 -6.2999689579063407e+00 -5.4372495288963285e-03 +0.0000000000000000e+00 +9.9998521804952756e-01
-6.3999999999999932e+00 -4.6290245977582885e+00 +0.0000000000000000e+00 -6.3999674561238216e+00 -5.5235541029341993e-03 +0.0000000000000000e+00 +9.9998474505867974e-01
-6.4999999999999929e+00 -4.6284679271216698e+00 +0.0000000000000000e+00 -6.4999659066697930e+00 -5.6098586199310688e-03 +0.0000000000000000e+00 +9.9998426461933143e-01
-6.5999999999999925e+00 -4.6279026260362048e+00 +0.0000000000000000e+00 -6.5999643087994047e+00 -5.6961630798455093e-03 +0.0000000000000000e+00 +9.9998377673148697e-01
-6.6999999999999922e+00 -4.6273286945076055e+00 +0.0000000000000000e+00 -6.6999626617678070e+00 -5.7824674826182478e-03 +0.0000000000000000e+00 +9.9998328139515069e-01
-6.7999999999999918e+00 -4.6267461325415891e+00 +0.0000000000000000e+00 -6.7999609648301513e+00 -5.8687718281722201e-03 +0.0000000000000000e+00 +9.9998277861032658e-01
-6.8999999999999915e+00 -4.6261549401438815e+00 +0.0000000000000000e+00 -6.8999592172415891e+00 -5.9550761164126357e-03 +0.0000000000000000e+00 +9.9998226837701898e-01
-6.9999999999999911e+00 -4.6255551173202205e+00 +0.0000000000000000e+00 -6.9999574182572726e+00 -6.0413803472270404e-03 +0.0000000000000000e+00 +9.9998175069523187e-01
-7.0999999999999908e+00 -4.6249466640763544e+00 +0.0000000000000000e+00 -7.0999555671323531e+00 -6.1276845204853818e-03 +0.0000000000000000e+00 +9.9998122556496938e-01
-7.1999999999999904e+00 -4.6243295804180464e+00 +0.0000000000000000e+00 -7.1999536631219838e+00 -6.2139886360400784e-03 +0.0000000000000000e+00 +9.9998069298623560e-01
-7.2999999999999901e+00 -4.6237038663510752e+00 +0.0000000000000000e+00 -7.2999517054813179e+00 -6.3002926937260903e-03 +0.0000000000000000e+00 +9.9998015295903453e-01
-7.3999999999999897e+00 -4.6230695218812361e+00 +0.0000000000000000e+00 -7.3999496934655085e+00 -6.3865966933609949e-03 +0.0000000000000000e+00 +9.9997960548337039e-01
-7.4999999999999893e+00 -4.6224265470143449e+00 +0.0000000000000000e+00 -7.4999476263297096e+00 -6.4729006347450605e-03 +0.0000000000000000e+00 +9.9997905055924718e-01
-7.5999999999999890e+00 -4.6217749417562359e+00 +0.0000000000000000e+00 -7.5999455033290761e+00 -6.5592045176613286e-03 +0.0000000000000000e+00 +9.9997848818666901e-01
-7.6999999999999886e+00 -4.6211147061127686e+00 +0.0000000000000000e+00 -7.6999433237187622e+00 -6.6455083418756906e-03 +0.0000000000000000e+00 +9.9997791836564009e-01
-7.7999999999999883e+00 -4.6204458400898254e+00 +0.0000000000000000e+00 -7.7999410867539227e+00 -6.7318121071369766e-03 +0.0000000000000000e+00 +9.9997734109616454e-01
-7.8999999999999879e+00 -4.6197683436933152e+00 +0.0000000000000000e+00 -7.8999387916897135e+00 -6.8181158131770375e-03 +0.0000000000000000e+00 +9.9997675637824646e-01
-7.9999999999999876e+00 -4.6190822169291739e+00 +0.0000000000000000e+00 -7.9999364377812903e+00 -6.9044194597108356e-03 +0.0000000000000000e+00 +9.9997616421189017e-01
-8.0999999999999872e+00 -4.6183874598033672e+00 +0.0000000000000000e+00 -8.0999340242838098e+00 -6.9907230464372533e-03 +0.0000000000000000e+00 +9.9997556459709991e-01
-8.1999999999999869e+00 -4.6176840723218904e+00 +0.0000000000000000e+00 -8.1999315504524297e+00 -7.0770265730470752e-03 +0.0000000000000000e+00 +9.9997495753387999e-01
-8.2999999999999865e+00 -4.6169720544907715e+00 +0.0000000000000000e+00 -8.2999290155423058e+00 -7.1633300392308953e-03 +0.0000000000000000e+00 +9.9997434302223465e-01
-8.3999999999999861e+00 -4.6162514063160689e+00 +0.0000000000000000e+00 -8.3999264188085956e+00 -7.2496334446797784e-03 +0.0000000000000000e+00 +9.9997372106216798e-01
-8.4999999999999858e+00 -4.6155221278038709e+00 +0.0000000000000000e+00 -8.4999237595064585e+00 -7.3359367890851908e-03 +0.0000000000000000e+00 +9.9997309165368409e-01
-8.5999999999999854e+00 -4.6147842189602972e+00 +0.0000000000000000e+00 -8.5999210368910521e+00 -7.4222400721389347e-03 +0.0000000000000000e+00 +9.9997245479678698e-01
-8.6999999999999851e+00 -4.6140376797914984e+00 +0.0000000000000000e+00 -8.6999182502175358e+00 -7.5085432935330758e-03 +0.0000000000000000e+00 +9.9997181049148065e-01
-8.7999999999999847e+00 -4.6132825103036561e+00 +0.0000000000000000e+00 -8.7999153987410690e+00 -7.5948464529598707e-03 +0.0000000000000000e+00 +9.9997115873776909e-01
-8.8999999999999844e+00 -4.6125187105029823e+00 +0.0000000000000000e+00 -8.8999124817168109e+00 -7.6811495501116914e-03 +0.0000000000000000e+00 +9.9997049953565598e-01
-8.9999999999999840e+00 -4.6117462803957201e+00 +0.0000000000000000e+00 -8.9999094983999210e+00 -7.7674525846809471e-03 +0.0000000000000000e+00 +9.9996983288514518e-01
-9.0999999999999837e+00 -4.6109652199881426e+00 +0.0000000000000000e+00 -9.0999064480455605e+00 -7.8537555563600054e-03 +0.0000000000000000e+00 +9.9996915878624049e-01
-9.1999999999999833e+00 -4.6101755292865549e+00 +0.0000000000000000e+00 -9.1999033299088904e+00 -7.9400584648411099e-03 +0.0000000000000000e+00 +9.9996847723894544e-01
-9.2999999999999829e+00 -4.6093772082972917e+00 +0.0000000000000000e+00 -9.2999001432450701e+00 -8.0263613098162951e-03 +0.0000000000000000e+00 +9.9996778824326371e-01
-9.3999999999999826e+00 -4.6085702570267193e+00 +0.0000000000000000e+00 -9.3998968873092625e+00 -8.1126640909773024e-03 +0.0000000000000000e+00 +9.9996709179919885e-01
-9.4999999999999822e+00 -4.6077546754812344e+00 +0.0000000000000000e+00 -9.4998935613566307e+00 -8.1989668080154881e-03 +0.0000000000000000e+00 +9.9996638790675429e-01
-9.5999999999999819e+00 -4.6069304636672639e+00 +0.0000000000000000e+00 -9.5998901646423356e+00 -8.2852694606217348e-03 +0.0000000000000000e+00 +9.9996567656593360e-01
-9.6999999999999815e+00 -4.6060976215912675e+00 +0.0000000000000000e+00 -9.6998866964215384e+00 -8.3715720484863580e-03 +0.0000000000000000e+00 +9.9996495777673999e-01
-9.7999999999999812e+00 -4.6052561492597350e+00 +0.0000000000000000e+00 -9.7998831559494040e+00 -8.4578745712990087e-03 +0.0000000000000000e+00 +9.9996423153917691e-01
-9.8999999999999808e+00 -4.6044060466791867e+00 +0.0000000000000000e+00 -9.8998795424810950e+00 -8.5441770287485782e-03 +0.0000000000000000e+00 +9.9996349785324756e-01
-9.9999999999999805e+00 -4.6035473138561747e+00 +0.0000000000000000e+00 -9.9998758552717746e+00 -8.6304794205230989e-03 +0.0000000000000000e+00 +9.9996275671895518e-01
-1.0099999999999980e+01 -4.6026799507972820e+00 +0.0000000000000000e+00 -1.0099872093576607e+01 -8.7167817463091324e-03 +0.0000000000000000e+00 +9.9996200813630298e-01
-1.0199999999999980e+01 -4.6018039575091230e+00 +0.0000000000000000e+00 -1.0199868256650756e+01 -8.8030840057860809e-03 +0.0000000000000000e+00 +9.9996125210529407e-01
-1.0299999999999979e+01 -4.6009193339983456e+00 +0.0000000000000000e+00 -1.0299864343749388e+01 -8.8893861986205896e-03 +0.0000000000000000e+00 +9.9996048862593179e-01
-1.0399999999999979e+01 -4.6000260802716317e+00 +0.0000000000000000e+00 -1.0399860354127664e+01 -8.9756883244661162e-03 +0.0000000000000000e+00 +9.9995971769821934e-01
-1.0499999999999979e+01 -4.5991241963356977e+00 +0.0000000000000000e+00 -1.0499856287040753e+01 -9.0619903829630231e-03 +0.0000000000000000e+00 +9.9995893932216018e-01
-1.0599999999999978e+01 -4.5982136821972963e+00 +0.0000000000000000e+00 -1.0599852141743819e+01 -9.1482923737386673e-03 +0.0000000000000000e+00 +9.9995815349775774e-01
-1.0699999999999978e+01 -4.5972945378632195e+00 +0.0000000000000000e+00 -1.0699847917492027e+01 -9.2345942964074997e-03 +0.0000000000000000e+00 +9.9995736022501547e-01
-1.0799999999999978e+01 -4.5963667633402983e+00 +0.0000000000000000e+00 -1.0799843613540544e+01 -9.3208961505711549e-03 +0.0000000000000000e+00 +9.9995655950393703e-01
-1.0899999999999977e+01 -4.5954303586354026e+00 +0.0000000000000000e+00 -1.0899839229144536e+01 -9.4071979358185571e-03 +0.0000000000000000e+00 +9.9995575133452619e-01
-1.0999999999999977e+01 -4.5944853237554462e+00 +0.0000000000000000e+00 -1.0999834763559171e+01 -9.4934996517260228e-03 +0.0000000000000000e+00 +9.9995493571678673e-01
-1.1099999999999977e+01 -4.5935316587073833e+00 +0.0000000000000000e+00 -1.1099830216039615e+01 -9.5798012978573644e-03 +0.0000000000000000e+00 +9.9995411265072254e-01
-1.1199999999999976e+01 -4.5925693634982148e+00 +0.0000000000000000e+00 -1.1199825585841038e+01 -9.6661028737639963e-03 +0.0000000000000000e+00 +9.9995328213633772e-01
-1.1299999999999976e+01 -4.5915984381349864e+00 +0.0000000000000000e+00 -1.1299820872218607e+01 -9.7524043789850474e-03 +0.0000000000000000e+00 +9.9995244417363627e-01
-1.1399999999999975e+01 -4.5906188826247893e+00 +0.0000000000000000e+00 -1.1399816074427489e+01 -9.8387058130474728e-03 +0.0000000000000000e+00 +9.9995159876262252e-01
-1.1499999999999975e+01 -4.5896306969747647e+00 +0.0000000000000000e+00 -1.1499811191722856e+01 -9.9250071754661690e-03 +0.0000000000000000e+00 +9.9995074590330069e-01
-1.1599999999999975e+01 -4.5886338811921012e+00 +0.0000000000000000e+00 -1.1599806223359874e+01 -1.0011308465744091e-02 +0.0000000000000000e+00 +9.9994988559567533e-01
-1.1699999999999974e+01 -4.5876284352840377e+00 +0.0000000000000000e+00 -1.1699801168593714e+01 -1.0097609683372376e-02 +0.0000000000000000e+00 +9.9994901783975099e-01
