# multipoles
# s[mm] polynom_b[n=0][T/m^n] polynom_b[n=1][T/m^n] polynom_b[n=2][T/m^n] polynom_b[n=3][T/m^n] polynom_b[n=4][T/m^n] polynom_b[n=5][T/m^n] polynom_b[n=6][T/m^n] 
+0.0000000000000000e+00 -1.2967719603293956e-01 +8.9405087211991802e-04 -4.8142500987025320e-02 -1.1010112527515075e+01 +5.3454211262904107e+02 +6.0476636207113901e+04 -4.1795402779724653e+05 
-1.0000000000000001e-01 -1.2967723315258059e-01 +8.8768799826950716e-04 -4.6747792484716610e-02 -1.0928276045142475e+01 +5.1539757104373655e+02 +6.0153732586180828e+04 -3.3458657098716649e+05 
-2.0000000000000001e-01 -1.2967726921929662e-01 +8.8070196550500723e-04 -4.5237353300464349e-02 -1.0838867646325637e+01 +4.9470342428791696e+02 +5.9791723042134327e+04 -2.4626008980827333e+05 
-3.0000000000000004e-01 -1.2967730425274959e-01 +8.7318602612395714e-04 -4.3623594064463936e-02 -1.0743384843767371e+01 +4.7263464899480925e+02 +5.9398105014821798e+04 -1.5363196980471481e+05 
-4.0000000000000002e-01 -1.2967733827256514e-01 +8.6523342201330839e-04 -4.1918928359456001e-02 -1.0643324851239578e+01 +4.4936628043828728e+02 +5.8980374398661319e+04 -5.7359890769288075e+04 
-5.0000000000000000e-01 -1.2967737129835549e-01 +8.5693738543099311e-04 -4.0135770633430691e-02 -1.0540184604451602e+01 +4.2507337604337658e+02 +5.8546025651608499e+04 +4.1898338958219065e+04 
-5.9999999999999998e-01 -1.2967740334971828e-01 +8.4839114280545842e-04 -3.8286536500131259e-02 -1.0435460867513946e+01 +3.9993102020821436e+02 +5.8102552395312254e+04 +1.4348476368816016e+05 
-6.9999999999999996e-01 -1.2967743444625934e-01 +8.3968791538757399e-04 -3.6383640526288716e-02 -1.0330650249559486e+01 +3.7411428499319976e+02 +5.7657447500084592e+04 +2.4674146049557973e+05 
-7.9999999999999993e-01 -1.2967746460759036e-01 +8.3092092204560129e-04 -3.4439496894953021e-02 -1.0227249285677434e+01 +3.4779824283147303e+02 +5.7218203544702417e+04 +3.5101048072298639e+05 
-8.9999999999999991e-01 -1.2967749385335056e-01 +8.2218338147675046e-04 -3.2466517179174856e-02 -1.0126754495200505e+01 +3.2115792599816530e+02 +5.6792313133772848e+04 +4.5563403828785982e+05 
-9.9999999999999989e-01 -1.2967752220321691e-01 +8.1356851388110908e-04 -3.0477109478043826e-02 -1.0030662429458761e+01 +2.9436831089730538e+02 +5.6387269164675381e+04 +5.5995458394266281e+05 
-1.0999999999999999e+00 -1.2967754967690637e-01 +8.0516954365160160e-04 -2.8483678634663400e-02 -9.9404697473424921e+00 +2.6760432373298136e+02 +5.6010565252128654e+04 +6.6331477599907643e+05 
-1.2000000000000000e+00 -1.2967757629420018e-01 +7.9707970064496556e-04 -2.6498623614590228e-02 -9.8576732498036019e+00 +2.4104079172753387e+02 +5.5669695916181678e+04 +7.6505770966181555e+05 
-1.3000000000000000e+00 -1.2967760207494355e-01 +7.8939222313705482e-04 -2.4534338026459365e-02 -9.7837699622370273e+00 +2.1485245405996596e+02 +5.5372157042450031e+04 +8.6452686453555385e+05 
-1.4000000000000001e+00 -1.2967762703906163e-01 +7.8220035921370776e-04 -2.2603208534871747e-02 -9.7202571723043523e+00 +1.8921393287369611e+02 +5.5125446089070414e+04 +9.6106623999194766e+05 
-1.5000000000000002e+00 -1.2967765120657174e-01 +7.7559736962273004e-04 -2.0717613830673134e-02 -9.6686325125109711e+00 +1.6429971521736061e+02 +5.4937062557744335e+04 +1.0540204381426461e+06 
-1.6000000000000003e+00 -1.2967767459759028e-01 +7.6967652921495935e-04 -1.8889924166961954e-02 -9.6303939961104454e+00 +1.4028414452567512e+02 +5.4814508179293254e+04 +1.1427347052154185e+06 
-1.7000000000000004e+00 -1.2967769723234734e-01 +7.6453112924696799e-04 -1.7132500017251726e-02 -9.6070400837294461e+00 +1.1734139730971869e+02 +5.4765287293021756e+04 +1.2265550373898211e+06 
-1.8000000000000005e+00 -1.2967771913119705e-01 +7.6025447962694008e-04 -1.5457691270118730e-02 -9.6000697446196224e+00 +9.5645468584495035e+01 +5.4796907183009578e+04 +1.3048282494250725e+06 
-1.9000000000000006e+00 -1.2967774031463022e-01 +7.5693991103879636e-04 -1.3877836005734362e-02 -9.6109825173037304e+00 +7.5370149490178846e+01 +5.4916878422573318e+04 +1.3769020798486031e+06 
-2.0000000000000004e+00 -1.2967776080329310e-01 +7.5468077482019225e-04 -1.2405259184441976e-02 -9.6412785055617096e+00 +5.6689005423091480e+01 +5.5132714696516799e+04 +1.4421252764487113e+06 
-2.1000000000000005e+00 -1.2967778064878838e-01 +7.5353708777447452e-04 -1.1049687847288492e-02 -9.6917770804812253e+00 +3.9740449965503636e+01 +5.5448545584047388e+04 +1.4999817326871634e+06 
-2.2000000000000006e+00 -1.2967779999111367e-01 +7.5343165647043177e-04 -9.8084146719126172e-03 -9.7606087023128101e+00 +2.4481241660883594e+01 +5.5855167310186189e+04 +1.5507081460106738e+06 
-2.3000000000000007e+00 -1.2967781898483322e-01 +7.5425078470034977e-04 -8.6748562509955801e-03 -9.8452215813145685e+00 +1.0808855105303529e+01 +5.6339954218258499e+04 +1.5948005326167035e+06 
-2.4000000000000008e+00 -1.2967783778446698e-01 +7.5588076861882354e-04 -7.6424321744756642e-03 -9.9430638304700238e+00 -1.3791887576730182e+00 +5.6890278520801359e+04 +1.6327548571390822e+06 
-2.5000000000000009e+00 -1.2967785654446906e-01 +7.5820790615032752e-04 -6.7045691516426590e-03 -1.0051583616223803e+01 -1.2185261076562556e+01 +5.7493512492528185e+04 +1.6650666551347955e+06 
-2.6000000000000010e+00 -1.2967787541921641e-01 +7.6111849534122222e-04 -5.8547022033826621e-03 -1.0168229108138325e+01 -2.1711605039995593e+01 +5.8137028137006877e+04 +1.6922309454547812e+06 
-2.7000000000000011e+00 -1.2967789456299672e-01 +7.6449883388509537e-04 -5.0862756073453046e-03 -1.0290448468121701e+01 -3.0060322717914815e+01 +5.8808197100225530e+04 +1.7147421808679716e+06 
-2.8000000000000012e+00 -1.2967791412999119e-01 +7.6823521864396961e-04 -4.3927447950916753e-03 -1.0415689839656912e+01 -3.7333342537529568e+01 +5.9494390582574488e+04 +1.7330941040238619e+06 
-2.9000000000000012e+00 -1.2967793427426380e-01 +7.7221394454552014e-04 -3.7675773128687550e-03 -1.0541401316601801e+01 -4.3632404608538522e+01 +6.0182979126614220e+04 +1.7477796879344014e+06 
-3.0000000000000013e+00 -1.2967795514975197e-01 +7.7632130383554294e-04 -3.2042535678458261e-03 -1.0665030923231823e+01 -4.9059050286578838e+01 +6.0861332473160342e+04 +1.7592910964239840e+06 
-3.1000000000000014e+00 -1.2967797691024452e-01 +7.8044358512710283e-04 -2.6962691896272404e-03 -1.0784026588871081e+01 -5.3714581804201238e+01 +6.1516819386564748e+04 +1.7681195059089782e+06 
-3.2000000000000015e+00 -1.2967799970937946e-01 +7.8446707309161128e-04 -2.2371349821147866e-03 -1.0895836139914820e+01 -5.7700066441605820e+01 +6.2136807577961546e+04 +1.7747551338241757e+06 
-3.3000000000000016e+00 -1.2967802370062101e-01 +7.8827804787288285e-04 -1.8203794403588212e-03 -1.0997907287443780e+01 -6.1116292085364215e+01 +6.2708663612312470e+04 +1.7796870377114564e+06 
-3.4000000000000017e+00 -1.2967804903725272e-01 +7.9176278293577242e-04 -1.4395491158236213e-03 -1.1087687562831553e+01 -6.4063765277598165e+01 +6.3219752496966619e+04 +1.7834031195221008e+06 
-3.5000000000000018e+00 -1.2967807587236196e-01 +7.9480754568127330e-04 -1.0882102822082490e-03 -1.1162624340056583e+01 -6.6642682421268532e+01 +6.3657437789204203e+04 +1.7863899973867952e+06 
-3.6000000000000019e+00 -1.2967810435882859e-01 +7.9729859708513784e-04 -7.5994994877009666e-04 -1.1220164826323577e+01 -6.8952914658238072e+01 +6.4009081511061151e+04 +1.7891329452908803e+06 
-3.7000000000000020e+00 -1.2967813464930650e-01 +7.9912218866882555e-04 -4.4837781303191476e-04 -1.1257755975636693e+01 -7.1093974229257114e+01 +6.4262043620450830e+04 +1.7921157434937675e+06 
-3.8000000000000020e+00 -1.2967816689622066e-01 +8.0016456422016529e-04 -1.4712615518233489e-04 -1.1272844541484416e+01 -7.3165021150876541e+01 +6.4403682289231474e+04 +1.7958207227236482e+06 
-3.9000000000000021e+00 -1.2967820125174295e-01 +8.0031195775369412e-04 +1.5014739618995703e-04 -1.1262877018279493e+01 -7.5264813427570971e+01 +6.4421353532271220e+04 +1.8007285363897227e+06 
-4.0000000000000018e+00 -1.2967823786778543e-01 +7.9945064825746154e-04 +4.4977490892108554e-04 -1.1225299715102894e+01 -7.7491959323504958e+01 +6.4302396600180546e+04 +1.8073181600714754e+06 
-4.1000000000000014e+00 -1.2967827680091187e-01 +7.9750983127520553e-04 +7.5736989517450747e-04 -1.1158507813810949e+01 -7.9958241444533499e+01 +6.4038353702201188e+04 +1.8161270982851030e+06 
-4.2000000000000011e+00 -1.2967831779048258e-01 +7.9456150814125655e-04 +1.0687841548772826e-03 -1.1064396833389482e+01 -8.2637274006701986e+01 +6.3638054746327041e+04 +1.8270472416348278e+06 
-4.3000000000000007e+00 -1.2967836051004200e-01 +7.9071406912935120e-04 +1.3756942078784853e-03 -1.0945897228215948e+01 -8.5410952907270115e+01 +6.3115762671498407e+04 +1.8395089255892746e+06 
-4.4000000000000004e+00 -1.2967840463318347e-01 +7.8607608312906475e-04 +1.6697587732866540e-03 -1.0805946544205325e+01 -8.8160336239396727e+01 +6.2485778119203838e+04 +1.8529377293792048e+06 
-4.5000000000000000e+00 -1.2967844983364868e-01 +7.8075613757687152e-04 +1.9426517621711076e-03 -1.0647482731076860e+01 -9.0766696104574748e+01 +6.1762404276429988e+04 +1.8667600252499483e+06 
-4.5999999999999996e+00 -1.2967849578534671e-01 +7.7486283943633747e-04 +2.1860645357726512e-03 -1.0473444165628786e+01 -9.3111557200600373e+01 +6.0959947040989930e+04 +1.8804031478607852e+06 
-4.6999999999999993e+00 -1.2967854216235908e-01 +7.6850481640033399e-04 +2.3917060741669551e-03 -1.0286769681155725e+01 -9.5076692720163891e+01 +6.0092715222843464e+04 +1.8932953537921757e+06 
-4.7999999999999989e+00 -1.2967858863895820e-01 +7.6179071760689365e-04 +2.5513052113015711e-03 -1.0090398580701805e+01 -9.6544162829720264e+01 +5.9175020645257413e+04 +1.9048659913824508e+06 
-4.8999999999999986e+00 -1.2967863488961090e-01 +7.5482921478142273e-04 +2.6566107192288880e-03 -9.8872706627867437e+00 -9.7396310027094316e+01 +5.8221178318857957e+04 +1.9145454604829396e+06 
-4.9999999999999982e+00 -1.2967868058900403e-01 +7.4772900235683644e-04 +2.6993942624417419e-03 -9.6803262195735726e+00 -9.7515809392888954e+01 +5.7245506463052516e+04 +1.9217654327310303e+06 
-5.0999999999999979e+00 -1.2967872541204159e-01 +7.4059879962720264e-04 +2.6714499510251217e-03 -9.4725060944458583e+00 -9.6785656085382968e+01 +5.6262326870713921e+04 +1.9259587801638446e+06 
-5.1999999999999975e+00 -1.2967876903386638e-01 +7.3354735048640420e-04 +2.5645965205970873e-03 -9.2667516643656231e+00 -9.5089199406088255e+01 +5.5285964824050083e+04 +1.9265597151661722e+06 
-5.2999999999999972e+00 -1.2967881112987034e-01 +7.2668342508619952e-04 +2.3706785563056424e-03 -9.0660048840964862e+00 -9.2310161328170267e+01 +5.4330749386402269e+04 +1.9230038637800165e+06 
-5.3999999999999968e+00 -1.2967885137570409e-01 +7.2011581995502110e-04 +2.0815674236683217e-03 -8.8732082823441623e+00 -8.8332649111611559e+01 +5.3411013405175181e+04 +1.9147283103120304e+06 
-5.4999999999999964e+00 -1.2967888944729369e-01 +7.1395335965894480e-04 +1.6891630539493572e-03 -8.6913050047138647e+00 -8.3041183049420866e+01 +5.2541093792683641e+04 +1.9011717104640855e+06 
-5.5999999999999961e+00 -1.2967892502084716e-01 +7.0830489746366164e-04 +1.1853945494379619e-03 -8.5232388249652651e+00 -7.6320702807210978e+01 +5.1735331614015777e+04 +1.8817743059076546e+06 
-5.6999999999999957e+00 -1.2967895777287219e-01 +7.0327931556148559e-04 +5.6222211028409536e-04 -8.3719541455199096e+00 -6.8056598127429311e+01 +5.1008072121323486e+04 +1.8559780520514550e+06 
-5.7999999999999954e+00 -1.2967898738018149e-01 +6.9898552685305191e-04 -1.8836245724268159e-04 -8.2403960432992314e+00 -5.8134713780943940e+01 +5.0373665046852948e+04 +1.8232266274588543e+06 
-5.8999999999999950e+00 -1.2967901351991359e-01 +6.9553247508693844e-04 -1.0743335554071073e-03 -8.1315102675336792e+00 -4.6441384507194968e+01 +4.9846464620797371e+04 +1.7829655798622672e+06 
-5.9999999999999947e+00 -1.2967903586930080e-01 +6.9302889307965812e-04 -2.1037203491370187e-03 -8.0482412283318414e+00 -3.2861665551553031e+01 +4.9440897802332765e+04 +1.7346399697500265e+06 
-6.0999999999999943e+00 -1.2967905420543713e-01 +6.9154347634384672e-04 -3.2850245465732186e-03 -7.9926045642274843e+00 -1.7228585466973115e+01 +4.9167779593033403e+04 +1.6774678048816884e+06 
-6.1999999999999940e+00 -1.2967906865118184e-01 +6.9104712797698087e-04 -4.6174479580532715e-03 -7.9640116802923053e+00 +5.2176548783547272e-01 +4.9025173039017791e+04 +1.6110990364791113e+06 
-6.2999999999999936e+00 -1.2967907940547507e-01 +6.9148752230819926e-04 -6.0958622062137705e-03 -7.9610344012930270e+00 +2.0351394397187832e+01 +4.9006718327081209e+04 +1.5356894005871431e+06 
-6.3999999999999932e+00 -1.2967908666752864e-01 +6.9281188791562383e-04 -7.7150490421542392e-03 -7.9822253058574884e+00 +4.2219154248864420e+01 +4.9105971440559792e+04 +1.4514102636694722e+06 
-6.4999999999999929e+00 -1.2967909063648031e-01 +6.9496744568630644e-04 -9.4697966962235952e-03 -8.0261370551893751e+00 +6.6083953914166685e+01 +4.9316489021514280e+04 +1.3584329095730595e+06 
-6.5999999999999925e+00 -1.2967909151139845e-01 +6.9790140863004203e-04 -1.1354899208757594e-02 -8.0913224021572656e+00 +9.1904742242347112e+01 +4.9631828428045796e+04 +1.2569286238508648e+06 
-6.6999999999999922e+00 -1.2967908949126544e-01 +7.0156098093753405e-04 -1.3365158177639409e-02 -8.1763341782800225e+00 +1.1964053663678942e+02 +5.0045547664135076e+04 +1.1470685711374900e+06 
-6.7999999999999918e+00 -1.2967908477498064e-01 +7.0589335670809348e-04 -1.5495382374371910e-02 -8.2797252686491394e+00 +1.4925041262679594e+02 +5.0551205233308166e+04 +1.0290238535169845e+06 
-6.8999999999999915e+00 -1.2967907756135522e-01 +7.1084572093057716e-04 -1.7740388151171557e-02 -8.4000486559734249e+00 +1.8069350746811509e+02 +5.1142360401196449e+04 +9.0296550503158977e+05 
-6.9999999999999911e+00 -1.2967906804910259e-01 +7.1636524659827810e-04 -2.0095000536251646e-02 -8.5358573496134778e+00 +2.1392903753333127e+02 +5.1812572785603581e+04 +7.6906441898805590e+05 
-7.0999999999999908e+00 -1.2967905643683666e-01 +7.2239909576119008e-04 -2.2554053219223328e-02 -8.6857044296204577e+00 +2.4891629379769611e+02 +5.2555402613667320e+04 +6.2749138102057565e+05 
-7.1999999999999904e+00 -1.2967904292306590e-01 +7.2889441811892794e-04 -2.5112389143461835e-02 -8.8481430203069174e+00 +2.8561464950447254e+02 +5.3364410575363094e+04 +4.7841704288992612e+05 
-7.2999999999999901e+00 -1.2967902770618620e-01 +7.3579835017269647e-04 -2.7764861250721539e-02 -9.0217262784706715e+00 +3.2398357042475055e+02 +5.4233157752988343e+04 +3.2201188496217685e+05 
-7.3999999999999897e+00 -1.2967901098448129e-01 +7.4305801526490154e-04 -3.0506332320018755e-02 -9.2050074088661660e+00 +3.6398260853281158e+02 +5.5155205718850331e+04 +1.5844625514626651e+05 
-7.4999999999999893e+00 -1.2967899295611007e-01 +7.5062052207825120e-04 -3.3331676223272183e-02 -9.3965396330077642e+00 +4.0557142086808761e+02 +5.6124116350600518e+04 -1.2109706446501257e+04 
-7.5999999999999890e+00 -1.2967897381910609e-01 +7.5843296445802849e-04 -3.6235778026544554e-02 -9.5948761986574809e+00 +4.4870976895299123e+02 +5.7133451894184109e+04 -1.8948605748193915e+05 
-7.6999999999999886e+00 -1.2967895377137717e-01 +7.6644242073782478e-04 -3.9213533752627511e-02 -9.7985703735734404e+00 +4.9335751015995612e+02 +5.8176774927683677e+04 -3.7351300139067182e+05 
-7.7999999999999883e+00 -1.2967893301068609e-01 +7.7459595285298759e-04 -4.2259852623380716e-02 -1.0006175433029091e+01 +5.3947463568263800e+02 +5.9247648290936530e+04 -5.6402105387827696e+05 
-7.8999999999999879e+00 -1.2967891173466173e-01 +7.8284060613412513e-04 -4.5369655593577259e-02 -1.0216244667114790e+01 +5.8702124026705883e+02 +6.0339635128963084e+04 -7.6084089292347291e+05 
-7.9999999999999876e+00 -1.2967889014153536e-01 +7.9112363772323253e-04 -4.8537709820440540e-02 -1.0427326548302061e+01 +6.3595454873031326e+02 +6.1446083218896820e+04 -9.6380445575191115e+05 
-8.0999999999999872e+00 -1.2967886841354365e-01 +7.9940730786164712e-04 -5.1755629273832059e-02 -1.0638317003490451e+01 +6.8615101044070900e+02 +6.2560796152283518e+04 -1.1724354254439627e+06 
-8.1999999999999869e+00 -1.2967884663467164e-01 +8.0765552412104887e-04 -5.5012315571151944e-02 -1.0848224683615863e+01 +7.3738952517775999e+02 +6.3677700935952897e+04 -1.3857746558472447e+06 
-8.2999999999999865e+00 -1.2967882486078200e-01 +8.1582011950441513e-04 -5.8295464201931040e-02 -1.1055810103918352e+01 +7.8941559019031649e+02 +6.4789521653460419e+04 -1.6026916379042319e+06 
-8.3999999999999861e+00 -1.2967880314760474e-01 +8.2385262394577615e-04 -6.1592735461734223e-02 -1.1259825812845154e+01 +8.4197385292841261e+02 +6.5888936684942339e+04 -1.8220511898327488e+06 
-8.4999999999999858e+00 -1.2967878155065801e-01 +8.3170452771924716e-04 -6.4891812871856303e-02 -1.1459022728752124e+01 +8.9480936163939225e+02 +6.6968614352040808e+04 -2.0427198210272423e+06 
-8.5999999999999854e+00 -1.2967876012524465e-01 +8.3932727837515123e-04 -6.8180403489635749e-02 -1.1652150034238234e+01 +9.4766757012822711e+02 +6.8021212282395296e+04 -2.2635657484439164e+06 
-8.6999999999999851e+00 -1.2967873892644233e-01 +8.4667228144535587e-04 -7.1446239139248080e-02 -1.1837955179896634e+01 +1.0002943604099047e+03 +6.9039377408491055e+04 -2.4834589987837011e+06 
-8.7999999999999847e+00 -1.2967871800909789e-01 +8.5369089767186484e-04 -7.4677076965599110e-02 -1.2015183789998549e+01 +1.0524360521213557e+03 +7.0015745408126808e+04 -2.7012714471907113e+06 
-8.8999999999999844e+00 -1.2967869742781921e-01 +8.6033444234406245e-04 -7.7860700478063219e-02 -1.2182579625629131e+01 +1.1038394220111259e+03 +7.0942940465351945e+04 -2.9158769054532689e+06 
-8.9999999999999840e+00 -1.2967867723697377e-01 +8.6655418440025262e-04 -8.0984919481981749e-02 -1.2338884542545628e+01 +1.1542517006745302e+03 +7.1813575005273931e+04 -3.1261510984706008e+06 
-9.0999999999999837e+00 -1.2967865749067681e-01 +8.7230134552320501e-04 -8.4037571669895117e-02 -1.2482838450816303e+01 +1.2034206028888982e+03 +7.2620249445467431e+04 -3.3309718048007963e+06 
-9.1999999999999833e+00 -1.2967863824278794e-01 +8.7752709830841720e-04 -8.7006522808771233e-02 -1.2613179243638820e+01 +1.2510943297430094e+03 +7.3355551757700319e+04 -3.5292188604433988e+06 
-9.2999999999999829e+00 -1.2967861954690019e-01 +8.8218256537811750e-04 -8.9879668164148108e-02 -1.2728642757849398e+01 +1.2970215948907976e+03 +7.4012057224150863e+04 -3.7197742772253244e+06 
-9.3999999999999826e+00 -1.2967860145634141e-01 +8.8621881813029477e-04 -9.2644932131997426e-02 -1.2827962719690776e+01 +1.3409516166881733e+03 +7.4582328098892947e+04 -3.9015222007872788e+06 
-9.4999999999999822e+00 -1.2967858402416330e-01 +8.8958687625408626e-04 -9.5290269628721599e-02 -1.2909870717035792e+01 +1.3826341436823934e+03 +7.5058913431430177e+04 -4.0733490255491328e+06 
-9.5999999999999819e+00 -1.2967856730312974e-01 +8.9223770566253008e-04 -9.7803667352636375e-02 -1.2973096121978031e+01 +1.4218194772554930e+03 +7.5434348593955161e+04 -4.2341434951739162e+06 
-9.6999999999999815e+00 -1.2967855134572215e-01 +8.9412221817671087e-04 -1.0017314327061545e-01 -1.3016366068134925e+01 +1.4582584622482414e+03 +7.5701155137152251e+04 -4.3827966563665187e+06 
-9.7999999999999812e+00 -1.2967853620412076e-01 +8.9519126957543775e-04 -1.0238674855046072e-01 -1.3038405374804499e+01 +1.4917025208616667e+03 +7.5851840320769799e+04 -4.5182020086986702e+06 
-9.8999999999999808e+00 -1.2967852193020654e-01 +8.9539565929051389e-04 -1.0443256753361381e-01 -1.3037936525983783e+01 +1.5219036526912241e+03 +7.5878896982829116e+04 -4.6392555029102555e+06 
-9.9999999999999805e+00 -1.2967850857484645e-01 +8.9468660613643586e-04 -1.0629880106529674e-01 -1.3013719364349495e+01 +1.5486137036080879e+03 +7.5775291306789280e+04 -4.7448269655174082e+06 
-1.0099999999999980e+01 -1.2967849616240512e-01 +8.9302108169796700e-04 -1.0797725431337823e-01 -1.2964747923356692e+01 +1.5716433914351073e+03 +7.5536349760062425e+04 -4.8339562594353501e+06 
