# trajectory
# s[mm] rx[mm] ry[mm] rz[mm] px[rad] py[rad] pz[rad]
0.0000000000000000e+00 +4.6467000000000001e+00 +0.0000000000000000e+00 +0.0000000000000000e+00 +0.0000000000000000e+00 +0.0000000000000000e+00 +1.0000000000000000e+00
-1.0000000000000001e-01 +4.6466956848234391e+00 +0.0000000000000000e+00 -9.9999999875861667e-02 +8.6303531094140986e-05 +0.0000000000000000e+00 +9.9999999627585023e-01
-2.0000000000000001e-01 +4.6466827392938095e+00 +0.0000000000000000e+00 -1.9999999900689339e-01 +1.7260706134009099e-04 +0.0000000000000000e+00 +9.9999998510340105e-01
-3.0000000000000004e-01 +4.6466611634112089e+00 +0.0000000000000000e+00 -2.9999999664826521e-01 +2.5891059046801476e-04 +0.0000000000000000e+00 +9.9999996648265244e-01
-4.0000000000000002e-01 +4.6466309571757618e+00 +0.0000000000000000e+00 -3.9999999205514725e-01 +3.4521411821628327e-04 +0.0000000000000000e+00 +9.9999994041360440e-01
-5.0000000000000000e-01 +4.6465921205876199e+00 +0.0000000000000000e+00 -4.9999998448270949e-01 +4.3151764433149926e-04 +0.0000000000000000e+00 +9.9999990689625684e-01
-5.9999999999999998e-01 +4.6465446536469583e+00 +0.0000000000000000e+00 -5.9999997318612197e-01 +5.1782116856851864e-04 +0.0000000000000000e+00 +9.9999986593060952e-01
-6.9999999999999996e-01 +4.6464885563539768e+00 +0.0000000000000000e+00 -6.9999995742055476e-01 +6.0412469069046841e-04 +0.0000000000000000e+00 +9.9999981751666223e-01
-7.9999999999999993e-01 +4.6464238287088984e+00 +0.0000000000000000e+00 -7.9999993644117773e-01 +6.9042821046876089e-04 +0.0000000000000000e+00 +9.9999976165441451e-01
-8.9999999999999991e-01 +4.6463504707119689e+00 +0.0000000000000000e+00 -8.9999990950316089e-01 +7.7673172768310400e-04 +0.0000000000000000e+00 +9.9999969834386593e-01
-9.9999999999999989e-01 +4.6462684823634550e+00 +0.0000000000000000e+00 -9.9999987586167416e-01 +8.6303524212150791e-04 +0.0000000000000000e+00 +9.9999962758501593e-01
-1.0999999999999999e+00 +4.6461778636636444e+00 +0.0000000000000000e+00 -1.0999998347718873e+00 +9.4933875358028789e-04 +0.0000000000000000e+00 +9.9999954937786384e-01
-1.2000000000000000e+00 +4.6460786146128452e+00 +0.0000000000000000e+00 -1.1999997854889701e+00 +1.0356422618640637e-03 +0.0000000000000000e+00 +9.9999946372240878e-01
-1.3000000000000000e+00 +4.6459707352113844e+00 +0.0000000000000000e+00 -1.2999997272680923e+00 +1.1219457667857543e-03 +0.0000000000000000e+00 +9.9999937061864996e-01
-1.4000000000000001e+00 +4.6458542254596065e+00 +0.0000000000000000e+00 -1.3999996593644233e+00 +1.2082492681665703e-03 +0.0000000000000000e+00 +9.9999927006658640e-01
-1.5000000000000002e+00 +4.6457290853578748e+00 +0.0000000000000000e+00 -1.4999995810331326e+00 +1.2945527658360012e-03 +0.0000000000000000e+00 +9.9999916206621697e-01
-1.6000000000000003e+00 +4.6455953149065685e+00 +0.0000000000000000e+00 -1.5999994915293896e+00 +1.3808562596317995e-03 +0.0000000000000000e+00 +9.9999904661754047e-01
-1.7000000000000004e+00 +4.6454529141060830e+00 +0.0000000000000000e+00 -1.6999993901083637e+00 +1.4671597493999616e-03 +0.0000000000000000e+00 +9.9999892372055554e-01
-1.8000000000000005e+00 +4.6453018829568276e+00 +0.0000000000000000e+00 -1.7999992760252237e+00 +1.5534632349947033e-03 +0.0000000000000000e+00 +9.9999879337526065e-01
-1.9000000000000006e+00 +4.6451422214592277e+00 +0.0000000000000000e+00 -1.8999991485351386e+00 +1.6397667162784337e-03 +0.0000000000000000e+00 +9.9999865558165424e-01
-2.0000000000000004e+00 +4.6449739296137205e+00 +0.0000000000000000e+00 -1.9999990068932774e+00 +1.7260701931217234e-03 +0.0000000000000000e+00 +9.9999851033973453e-01
-2.1000000000000005e+00 +4.6447970074207561e+00 +0.0000000000000000e+00 -2.0999988503548082e+00 +1.8123736653987053e-03 +0.0000000000000000e+00 +9.9999835764949974e-01
-2.2000000000000006e+00 +4.6446114548807991e+00 +0.0000000000000000e+00 -2.1999986781748997e+00 +1.8986771329368300e-03 +0.0000000000000000e+00 +9.9999819751094787e-01
-2.3000000000000007e+00 +4.6444172719943362e+00 +0.0000000000000000e+00 -2.2999984896087202e+00 +1.9849805954666234e-03 +0.0000000000000000e+00 +9.9999802992407716e-01
-2.4000000000000008e+00 +4.6442144587618852e+00 +0.0000000000000000e+00 -2.3999982839114375e+00 +2.0712840526170922e-03 +0.0000000000000000e+00 +9.9999785488888593e-01
-2.5000000000000009e+00 +4.6440030151840075e+00 +0.0000000000000000e+00 -2.4999980603382199e+00 +2.1575875039156912e-03 +0.0000000000000000e+00 +9.9999767240537263e-01
-2.6000000000000010e+00 +4.6437829412613159e+00 +0.0000000000000000e+00 -2.5999978181442347e+00 +2.2438909487882902e-03 +0.0000000000000000e+00 +9.9999748247353604e-01
-2.7000000000000011e+00 +4.6435542369944862e+00 +0.0000000000000000e+00 -2.6999975565846497e+00 +2.3301943865591370e-03 +0.0000000000000000e+00 +9.9999728509337504e-01
-2.8000000000000012e+00 +4.6433169023842664e+00 +0.0000000000000000e+00 -2.7999972749146322e+00 +2.4164978164508194e-03 +0.0000000000000000e+00 +9.9999708026488909e-01
-2.9000000000000012e+00 +4.6430709374314878e+00 +0.0000000000000000e+00 -2.8999969723893502e+00 +2.5028012375842247e-03 +0.0000000000000000e+00 +9.9999686798807785e-01
-3.0000000000000013e+00 +4.6428163421370741e+00 +0.0000000000000000e+00 -2.9999966482639704e+00 +2.5891046489784977e-03 +0.0000000000000000e+00 +9.9999664826294132e-01
-3.1000000000000014e+00 +4.6425531165020528e+00 +0.0000000000000000e+00 -3.0999963017936607e+00 +2.6754080495509963e-03 +0.0000000000000000e+00 +9.9999642108947995e-01
-3.2000000000000015e+00 +4.6422812605275645e+00 +0.0000000000000000e+00 -3.1999959322335889e+00 +2.7617114381172452e-03 +0.0000000000000000e+00 +9.9999618646769484e-01
-3.3000000000000016e+00 +4.6420007742148730e+00 +0.0000000000000000e+00 -3.2999955388389224e+00 +2.8480148133908870e-03 +0.0000000000000000e+00 +9.9999594439758743e-01
-3.4000000000000017e+00 +4.6417116575653763e+00 +0.0000000000000000e+00 -3.3999951208648289e+00 +2.9343181739836331e-03 +0.0000000000000000e+00 +9.9999569487915996e-01
-3.5000000000000018e+00 +4.6414139105806154e+00 +0.0000000000000000e+00 -3.4999946775664768e+00 +3.0206215184052096e-03 +0.0000000000000000e+00 +9.9999543791241507e-01
-3.6000000000000019e+00 +4.6411075332622866e+00 +0.0000000000000000e+00 -3.5999942081990346e+00 +3.1069248450633050e-03 +0.0000000000000000e+00 +9.9999517349735612e-01
-3.7000000000000020e+00 +4.6407925256122509e+00 +0.0000000000000000e+00 -3.6999937120176711e+00 +3.1932281522635119e-03 +0.0000000000000000e+00 +9.9999490163398730e-01
-3.8000000000000020e+00 +4.6404688876325419e+00 +0.0000000000000000e+00 -3.7999931882775555e+00 +3.2795314382092710e-03 +0.0000000000000000e+00 +9.9999462232231340e-01
-3.9000000000000021e+00 +4.6401366193253804e+00 +0.0000000000000000e+00 -3.8999926362338573e+00 +3.3658347010018090e-03 +0.0000000000000000e+00 +9.9999433556234008e-01
-4.0000000000000018e+00 +4.6397957206931801e+00 +0.0000000000000000e+00 -3.9999920551417469e+00 +3.4521379386400772e-03 +0.0000000000000000e+00 +9.9999404135407377e-01
-4.1000000000000014e+00 +4.6394461917385605e+00 +0.0000000000000000e+00 -4.0999914442563954e+00 +3.5384411490292471e-03 +0.0000000000000000e+00 +9.9999373969752192e-01
-4.2000000000000011e+00 +4.6390880324643522e+00 +0.0000000000000000e+00 -4.1999908028329749e+00 +3.6247443300748278e-03 +0.0000000000000000e+00 +9.9999343059269241e-01
-4.3000000000000007e+00 +4.6387212428735900e+00 +0.0000000000000000e+00 -4.2999901301266581e+00 +3.7110474797768505e-03 +0.0000000000000000e+00 +9.9999311403959334e-01
-4.4000000000000004e+00 +4.6383458229695043e+00 +0.0000000000000000e+00 -4.3999894253926186e+00 +3.7973505962384619e-03 +0.0000000000000000e+00 +9.9999279003823305e-01
-4.5000000000000000e+00 +4.6379617727555100e+00 +0.0000000000000000e+00 -4.4999886878860300e+00 +3.8836536776659571e-03 +0.0000000000000000e+00 +9.9999245858861974e-01
-4.5999999999999996e+00 +4.6375690922351955e+00 +0.0000000000000000e+00 -4.5999879168620676e+00 +3.9699567223688169e-03 +0.0000000000000000e+00 +9.9999211969076185e-01
-4.6999999999999993e+00 +4.6371677814123133e+00 +0.0000000000000000e+00 -4.6999871115759078e+00 +4.0562597287597474e-03 +0.0000000000000000e+00 +9.9999177334466771e-01
-4.7999999999999989e+00 +4.6367578402907696e+00 +0.0000000000000000e+00 -4.7999862712827266e+00 +4.1425626953547259e-03 +0.0000000000000000e+00 +9.9999141955034565e-01
-4.8999999999999986e+00 +4.6363392688746146e+00 +0.0000000000000000e+00 -4.8999853952377022e+00 +4.2288656207730485e-03 +0.0000000000000000e+00 +9.9999105830780399e-01
-4.9999999999999982e+00 +4.6359120671680305e+00 +0.0000000000000000e+00 -4.9999844826960134e+00 +4.3151685037373794e-03 +0.0000000000000000e+00 +9.9999068961705073e-01
-5.0999999999999979e+00 +4.6354762351753216e+00 +0.0000000000000000e+00 -5.0999835329128391e+00 +4.4014713430738095e-03 +0.0000000000000000e+00 +9.9999031347809386e-01
-5.1999999999999975e+00 +4.6350317729009056e+00 +0.0000000000000000e+00 -5.1999825451433592e+00 +4.4877741377119130e-03 +0.0000000000000000e+00 +9.9998992989094104e-01
-5.2999999999999972e+00 +4.6345786803493016e+00 +0.0000000000000000e+00 -5.2999815186427544e+00 +4.5740768866848105e-03 +0.0000000000000000e+00 +9.9998953885559971e-01
-5.3999999999999968e+00 +4.6341169575251202e+00 +0.0000000000000000e+00 -5.3999804526662061e+00 +4.6603795891292351e-03 +0.0000000000000000e+00 +9.9998914037207698e-01
-5.4999999999999964e+00 +4.6336466044330527e+00 +0.0000000000000000e+00 -5.4999793464688969e+00 +4.7466822442856025e-03 +0.0000000000000000e+00 +9.9998873444037961e-01
-5.5999999999999961e+00 +4.6331676210778614e+00 +0.0000000000000000e+00 -5.5999781993060092e+00 +4.8329848514980824e-03 +0.0000000000000000e+00 +9.9998832106051394e-01
-5.6999999999999957e+00 +4.6326800074643693e+00 +0.0000000000000000e+00 -5.6999770104327272e+00 +4.9192874102146778e-03 +0.0000000000000000e+00 +9.9998790023248585e-01
-5.7999999999999954e+00 +4.6321837635974497e+00 +0.0000000000000000e+00 -5.7999757791042343e+00 +5.0055899199873029e-03 +0.0000000000000000e+00 +9.9998747195630067e-01
-5.8999999999999950e+00 +4.6316788894820151e+00 +0.0000000000000000e+00 -5.8999745045757157e+00 +5.0918923804718699e-03 +0.0000000000000000e+00 +9.9998703623196339e-01
-5.9999999999999947e+00 +4.6311653851230066e+00 +0.0000000000000000e+00 -5.9999731861023555e+00 +5.1781947914283739e-03 +0.0000000000000000e+00 +9.9998659305947812e-01
-6.0999999999999943e+00 +4.6306432505253854e+00 +0.0000000000000000e+00 -6.0999718229393398e+00 +5.2644971527138883e-03 +0.0000000000000000e+00 +9.9998614243884865e-01
-6.1999999999999940e+00 +4.6301124856941236e+00 +0.0000000000000000e+00 -6.1999704143418537e+00 +5.3507994642045384e-03 +0.0000000000000000e+00 +9.9998568437007840e-01
-6.2999999999999936e+00 +4.6295730906342101e+00 +0.0000000000000000e+00 -6.2999689595650841e+00 +5.4371017257174139e-03 +0.0000000000000000e+00 +9.9998521885317104e-01
-6.3999999999999932e+00 +4.6290250653506542e+00 +0.0000000000000000e+00 -6.3999674578642169e+00 +5.5234039370035369e-03 +0.0000000000000000e+00 +9.9998474588813047e-01
-6.4999999999999929e+00 +4.6284684098484936e+00 +0.0000000000000000e+00 -6.4999659084944392e+00 +5.6097060977479355e-03 +0.0000000000000000e+00 +9.9998426547496089e-01
-6.5999999999999925e+00 +4.6279031241328017e+00 +0.0000000000000000e+00 -6.5999643107109387e+00 +5.6960082075697277e-03 +0.0000000000000000e+00 +9.9998377761366686e-01
-6.6999999999999922e+00 +4.6273292082086916e+00 +0.0000000000000000e+00 -6.6999626637689023e+00 +5.7823102660222014e-03 +0.0000000000000000e+00 +9.9998328230425315e-01
-6.7999999999999918e+00 +4.6267466620813265e+00 +0.0000000000000000e+00 -6.7999609669235186e+00 +5.8686122725929010e-03 +0.0000000000000000e+00 +9.9998277954672510e-01
-6.8999999999999915e+00 +4.6261554857559215e+00 +0.0000000000000000e+00 -6.8999592194299764e+00 +5.9549142267037187e-03 +0.0000000000000000e+00 +9.9998226934108825e-01
-6.9999999999999911e+00 +4.6255556792377552e+00 +0.0000000000000000e+00 -6.9999574205434660e+00 +6.0412161277109801e-03 +0.0000000000000000e+00 +9.9998175168734882e-01
-7.0999999999999908e+00 +4.6249472425321727e+00 +0.0000000000000000e+00 -7.0999555695191763e+00 +6.1275179749055433e-03 +0.0000000000000000e+00 +9.9998122658551314e-01
-7.1999999999999904e+00 +4.6243301756445936e+00 +0.0000000000000000e+00 -7.1999536656122984e+00 +6.2138197675128924e-03 +0.0000000000000000e+00 +9.9998069403558842e-01
-7.2999999999999901e+00 +4.6237044785805175e+00 +0.0000000000000000e+00 -7.2999517080780238e+00 +6.3001215046932374e-03 +0.0000000000000000e+00 +9.9998015403758211e-01
-7.3999999999999897e+00 +4.6230701513455328e+00 +0.0000000000000000e+00 -7.3999496961715456e+00 +6.3864231855416164e-03 +0.0000000000000000e+00 +9.9997960659150220e-01
-7.4999999999999893e+00 +4.6224271939453194e+00 +0.0000000000000000e+00 -7.4999476291480560e+00 +6.4727248090880006e-03 +0.0000000000000000e+00 +9.9997905169735735e-01
-7.5999999999999890e+00 +4.6217756063856594e+00 +0.0000000000000000e+00 -7.5999455062627490e+00 +6.5590263742974012e-03 +0.0000000000000000e+00 +9.9997848935515687e-01
-7.6999999999999886e+00 +4.6211153886724414e+00 +0.0000000000000000e+00 -7.6999433267708195e+00 +6.6453278800699790e-03 +0.0000000000000000e+00 +9.9997791956491056e-01
-7.7999999999999883e+00 +4.6204465408116659e+00 +0.0000000000000000e+00 -7.7999410899274633e+00 +6.7316293252411589e-03 +0.0000000000000000e+00 +9.9997734232662883e-01
-7.8999999999999879e+00 +4.6197690628094543e+00 +0.0000000000000000e+00 -7.8999387949878779e+00 +6.8179307085817461e-03 +0.0000000000000000e+00 +9.9997675764032301e-01
-7.9999999999999876e+00 +4.6190829546720540e+00 +0.0000000000000000e+00 -7.9999364412072609e+00 +6.9042320287980418e-03 +0.0000000000000000e+00 +9.9997616550600488e-01
-8.0999999999999872e+00 +4.6183882164058438e+00 +0.0000000000000000e+00 -8.0999340278408116e+00 +6.9905332845363599e-03 +0.0000000000000000e+00 +9.9997556592368697e-01
-8.1999999999999869e+00 +4.6176848480173414e+00 +0.0000000000000000e+00 -8.1999315541437312e+00 +7.0768344744315424e-03 +0.0000000000000000e+00 +9.9997495889338239e-01
-8.2999999999999865e+00 +4.6169728495131972e+00 +0.0000000000000000e+00 -8.2999290193712216e+00 +7.1631355971554546e-03 +0.0000000000000000e+00 +9.9997434441510402e-01
-8.3999999999999861e+00 +4.6162522209001926e+00 +0.0000000000000000e+00 -8.3999264227784867e+00 +7.2494366514213758e-03 +0.0000000000000000e+00 +9.9997372248886485e-01
-8.4999999999999858e+00 +4.6155229621852367e+00 +0.0000000000000000e+00 -8.4999237636207301e+00 +7.3357376359839662e-03 +0.0000000000000000e+00 +9.9997309311467786e-01
-8.5999999999999854e+00 +4.6147850733753595e+00 +0.0000000000000000e+00 -8.5999210411531575e+00 +7.4220385496392297e-03 +0.0000000000000000e+00 +9.9997245629255604e-01
-8.6999999999999851e+00 +4.6140385544777107e+00 +0.0000000000000000e+00 -8.6999182546309761e+00 +7.5083393912244792e-03 +0.0000000000000000e+00 +9.9997181202251217e-01
-8.7999999999999847e+00 +4.6132834054995540e+00 +0.0000000000000000e+00 -8.7999154033093951e+00 +7.5946401596182949e-03 +0.0000000000000000e+00 +9.9997116030455901e-01
-8.8999999999999844e+00 +4.6125196264482629e+00 +0.0000000000000000e+00 -8.8999124864436236e+00 +7.6809408537404818e-03 +0.0000000000000000e+00 +9.9997050113870933e-01
-8.9999999999999840e+00 +4.6117472173313168e+00 +0.0000000000000000e+00 -8.9999095032888743e+00 +7.7672414725520238e-03 +0.0000000000000000e+00 +9.9996983452497568e-01
-9.0999999999999837e+00 +4.6109661781562963e+00 +0.0000000000000000e+00 -9.0999064531003580e+00 +7.8535420150550369e-03 +0.0000000000000000e+00 +9.9996916046337048e-01
-9.1999999999999833e+00 +4.6101765089308815e+00 +0.0000000000000000e+00 -9.1999033351332873e+00 +7.9398424802927161e-03 +0.0000000000000000e+00 +9.9996847895390595e-01
-9.2999999999999829e+00 +4.6093782096628440e+00 +0.0000000000000000e+00 -9.2999001486428785e+00 +8.0261428673492861e-03 +0.0000000000000000e+00 +9.9996778999659430e-01
-9.3999999999999826e+00 +4.6085712803600467e+00 +0.0000000000000000e+00 -9.3998968928843460e+00 +8.1124431753499433e-03 +0.0000000000000000e+00 +9.9996709359144753e-01
-9.4999999999999822e+00 +4.6077557210304372e+00 +0.0000000000000000e+00 -9.4998935671129079e+00 +8.1987434034607939e-03 +0.0000000000000000e+00 +9.9996638973847729e-01
-9.5999999999999819e+00 +4.6069315316820445e+00 +0.0000000000000000e+00 -9.5998901705837820e+00 +8.2850435508887970e-03 +0.0000000000000000e+00 +9.9996567843769513e-01
-9.6999999999999815e+00 +4.6060987123229742e+00 +0.0000000000000000e+00 -9.6998867025521882e+00 +8.3713436168816983e-03 +0.0000000000000000e+00 +9.9996495968911236e-01
-9.7999999999999812e+00 +4.6052572629614064e+00 +0.0000000000000000e+00 -9.7998831622733462e+00 +8.4576436007279595e-03 +0.0000000000000000e+00 +9.9996423349274000e-01
-9.8999999999999808e+00 +4.6044071836055895e+00 +0.0000000000000000e+00 -9.8998795490024776e+00 +8.5439435017566952e-03 +0.0000000000000000e+00 +9.9996349984858890e-01
-9.9999999999999805e+00 +4.6035484742638371e+00 +0.0000000000000000e+00 -9.9998758619948056e+00 +8.6302433193375938e-03 +0.0000000000000000e+00 +9.9996275875666940e-01
-1.0099999999999980e+01 +4.6026811349445236e+00 +0.0000000000000000e+00 -1.0099872100505554e+01 +8.7165430528800426e-03 +0.0000000000000000e+00 +9.9996201021699183e-01
-1.0199999999999980e+01 +4.6018051656560814e+00 +0.0000000000000000e+00 -1.0199868263789947e+01 +8.8028427018242237e-03 +0.0000000000000000e+00 +9.9996125422956605e-01
-1.0299999999999979e+01 +4.6009205664069972e+00 +0.0000000000000000e+00 -1.0299864351103210e+01 +8.8891422656321405e-03 +0.0000000000000000e+00 +9.9996049079440197e-01
-1.0399999999999979e+01 +4.6000273372058107e+00 +0.0000000000000000e+00 -1.0399860361700570e+01 +8.9754417437866597e-03 +0.0000000000000000e+00 +9.9995971991150912e-01
-1.0499999999999979e+01 +4.5991254780611115e+00 +0.0000000000000000e+00 -1.0499856294837254e+01 +9.0617411357913624e-03 +0.0000000000000000e+00 +9.9995894158089704e-01
-1.0599999999999978e+01 +4.5982149889815398e+00 +0.0000000000000000e+00 -1.0599852149768493e+01 +9.1480404411703759e-03 +0.0000000000000000e+00 +9.9995815580257486e-01
-1.0699999999999978e+01 +4.5972958699757802e+00 +0.0000000000000000e+00 -1.0699847925749513e+01 +9.2343396594682225e-03 +0.0000000000000000e+00 +9.9995736257655177e-01
-1.0799999999999978e+01 +4.5963681210525635e+00 +0.0000000000000000e+00 -1.0799843622035546e+01 +9.3206387902496444e-03 +0.0000000000000000e+00 +9.9995656190283666e-01
-1.0899999999999977e+01 +4.5954317422206614e+00 +0.0000000000000000e+00 -1.0899839237881823e+01 +9.4069378330994390e-03 +0.0000000000000000e+00 +9.9995575378143808e-01
-1.0999999999999977e+01 +4.5944867334888873e+00 +0.0000000000000000e+00 -1.0999834772543577e+01 +9.4932367876222872e-03 +0.0000000000000000e+00 +9.9995493821236459e-01
-1.1099999999999977e+01 +4.5935330948660935e+00 +0.0000000000000000e+00 -1.1099830225276040e+01 +9.5795356534425762e-03 +0.0000000000000000e+00 +9.9995411519562449e-01
-1.1199999999999976e+01 +4.5925708263611673e+00 +0.0000000000000000e+00 -1.1199825595334447e+01 +9.6658344302042176e-03 +0.0000000000000000e+00 +9.9995328473122569e-01
-1.1299999999999976e+01 +4.5915999279830322e+00 +0.0000000000000000e+00 -1.1299820881974030e+01 +9.7521331175704669e-03 +0.0000000000000000e+00 +9.9995244681917606e-01
-1.1399999999999975e+01 +4.5906203997406436e+00 +0.0000000000000000e+00 -1.1399816084450027e+01 +9.8384317152237361e-03 +0.0000000000000000e+00 +9.9995160145948303e-01
-1.1499999999999975e+01 +4.5896322416429882e+00 +0.0000000000000000e+00 -1.1499811202017673e+01 +9.9247302228654046e-03 +0.0000000000000000e+00 +9.9995074865215394e-01
-1.1599999999999975e+01 +4.5886354536990810e+00 +0.0000000000000000e+00 -1.1599806233932204e+01 +1.0011028640215627e-02 +0.0000000000000000e+00 +9.9994988839719590e-01
-1.1699999999999974e+01 +4.5876300359179636e+00 +0.0000000000000000e+00 -1.1699801179448858e+01 +1.0097326967013133e-02 +0.0000000000000000e+00 +9.9994902069461566e-01
