# field on trajectory
# s[mm] rx[mm] ry[mm] rz[mm] bx[T] by[T] bz[T]
0.0000000000000000e+00 +4.6467000000000001e+00 +0.0000000000000000e+00 +0.0000000000000000e+00 +2.5967973440081567e-02 -4.7712107852759839e-01 +3.3862498224326849e-03
-1.0000000000000001e-01 +4.6466956827876773e+00 +0.0000000000000000e+00 -9.9999999875744525e-02 +2.5967983192665151e-02 -4.7712102157163777e-01 +3.3862883524899217e-03
-2.0000000000000001e-01 +4.6466827311514107e+00 +0.0000000000000000e+00 -1.9999999900595622e-01 +2.5967997090191548e-02 -4.7712097065173004e-01 +3.3863261109933645e-03
-3.0000000000000004e-01 +4.6466611450922182e+00 +0.0000000000000000e+00 -2.9999999664510257e-01 +2.5968015005488281e-02 -4.7712092537154011e-01 +3.3863631517344695e-03
-4.0000000000000002e-01 +4.6466309246110811e+00 +0.0000000000000000e+00 -3.9999999204765119e-01 +2.5968036811409679e-02 -4.7712088533477504e-01 +3.3863995284959666e-03
-5.0000000000000000e-01 +4.6465920697089498e+00 +0.0000000000000000e+00 -4.9999998446806992e-01 +2.5968062380840231e-02 -4.7712085014517774e-01 +3.3864352950533343e-03
-5.9999999999999998e-01 +4.6465445803867507e+00 +0.0000000000000000e+00 -5.9999997316082687e-01 +2.5968091586697804e-02 -4.7712081940652384e-01 +3.3864705051763000e-03
-6.9999999999999996e-01 +4.6464884566453959e+00 +0.0000000000000000e+00 -6.9999995738039011e-01 +2.5968124301936967e-02 -4.7712079272261682e-01 +3.3865052126303323e-03
-7.9999999999999993e-01 +4.6464236984857870e+00 +0.0000000000000000e+00 -7.9999993638122791e-01 +2.5968160399552218e-02 -4.7712076969728295e-01 +3.3865394711781265e-03
-8.9999999999999991e-01 +4.6463503059088236e+00 +0.0000000000000000e+00 -8.9999990941780872e-01 +2.5968199752581314e-02 -4.7712074993436782e-01 +3.3865733345811045e-03
-9.9999999999999989e-01 +4.6462682789154108e+00 +0.0000000000000000e+00 -9.9999987574460103e-01 +2.5968242234108582e-02 -4.7712073303773184e-01 +3.3866068566009047e-03
-1.0999999999999999e+00 +4.6461776175064671e+00 +0.0000000000000000e+00 -1.0999998346160733e+00 +2.5968287717268074e-02 -4.7712071861124439e-01 +3.3866400910008746e-03
-1.2000000000000000e+00 +4.6460783216829302e+00 +0.0000000000000000e+00 -1.1999997852866944e+00 +2.5968336075246991e-02 -4.7712070625878200e-01 +3.3866730915475705e-03
-1.3000000000000000e+00 +4.6459703914457648e+00 +0.0000000000000000e+00 -1.2999997270109331e+00 +2.5968387181288823e-02 -4.7712069558422038e-01 +3.3867059120122394e-03
-1.4000000000000001e+00 +4.6458538267959684e+00 +0.0000000000000000e+00 -1.3999996590432584e+00 +2.5968440908696731e-02 -4.7712068619143339e-01 +3.3867386061723331e-03
-1.5000000000000002e+00 +4.6457286277345817e+00 +0.0000000000000000e+00 -1.4999995806381390e+00 +2.5968497130836699e-02 -4.7712067768428662e-01 +3.3867712278129857e-03
-1.6000000000000003e+00 +4.6455947942626921e+00 +0.0000000000000000e+00 -1.5999994910500441e+00 +2.5968555721140901e-02 -4.7712066966663325e-01 +3.3868038307285197e-03
-1.7000000000000004e+00 +4.6454523263814425e+00 +0.0000000000000000e+00 -1.6999993895334429e+00 +2.5968616553110835e-02 -4.7712066174230955e-01 +3.3868364687239354e-03
-1.8000000000000005e+00 +4.6453012240920399e+00 +0.0000000000000000e+00 -1.7999992753428045e+00 +2.5968679500320647e-02 -4.7712065351513100e-01 +3.3868691956164170e-03
-1.9000000000000006e+00 +4.6451414873957599e+00 +0.0000000000000000e+00 -1.8999991477325986e+00 +2.5968744436420343e-02 -4.7712064458888653e-01 +3.3869020652368201e-03
-2.0000000000000004e+00 +4.6449731162939552e+00 +0.0000000000000000e+00 -1.9999990059572947e+00 +2.5968811235138983e-02 -4.7712063456733583e-01 +3.3869351314311756e-03
-2.1000000000000005e+00 +4.6447961107880635e+00 +0.0000000000000000e+00 -2.0999988492713628e+00 +2.5968879729135079e-02 -4.7712062309811082e-01 +3.3869684308182016e-03
-2.2000000000000006e+00 +4.6446104708796119e+00 +0.0000000000000000e+00 -2.1999986769292725e+00 +2.5968949586490150e-02 -4.7712061000443917e-01 +3.3870019310563472e-03
-2.3000000000000007e+00 +4.6444161965702220e+00 +0.0000000000000000e+00 -2.2999984881854942e+00 +2.5969020434084972e-02 -4.7712059515341415e-01 +3.3870355825773562e-03
-2.4000000000000008e+00 +4.6442132878616107e+00 +0.0000000000000000e+00 -2.3999982822944985e+00 +2.5969091898731339e-02 -4.7712057841207972e-01 +3.3870693358325106e-03
-2.5000000000000009e+00 +4.6440017447555944e+00 +0.0000000000000000e+00 -2.4999980585107560e+00 +2.5969163607159090e-02 -4.7712055964742467e-01 +3.3871031412939568e-03
-2.6000000000000010e+00 +4.6437815672540896e+00 +0.0000000000000000e+00 -2.5999978160887376e+00 +2.5969235186003289e-02 -4.7712053872638005e-01 +3.3871369494560500e-03
-2.7000000000000011e+00 +4.6435527553591163e+00 +0.0000000000000000e+00 -2.6999975542829149e+00 +2.5969306261791354e-02 -4.7712051551581230e-01 +3.3871707108366852e-03
-2.8000000000000012e+00 +4.6433153090728014e+00 +0.0000000000000000e+00 -2.7999972723477593e+00 +2.5969376460930154e-02 -4.7712048988252082e-01 +3.3872043759786449e-03
-2.9000000000000012e+00 +4.6430692283973789e+00 +0.0000000000000000e+00 -2.8999969695377428e+00 +2.5969445409693103e-02 -4.7712046169323141e-01 +3.3872378954509347e-03
-3.0000000000000013e+00 +4.6428145133351935e+00 +0.0000000000000000e+00 -2.9999966451073381e+00 +2.5969512734207348e-02 -4.7712043081459382e-01 +3.3872712198501254e-03
-3.1000000000000014e+00 +4.6425511638887036e+00 +0.0000000000000000e+00 -3.0999962983110181e+00 +2.5969578060440805e-02 -4.7712039711317500e-01 +3.3873042998017011e-03
-3.2000000000000015e+00 +4.6422791800604823e+00 +0.0000000000000000e+00 -3.1999959284032560e+00 +2.5969641014189321e-02 -4.7712036045545614e-01 +3.3873370859613967e-03
-3.3000000000000016e+00 +4.6419985618532209e+00 +0.0000000000000000e+00 -3.2999955346385259e+00 +2.5969701221063811e-02 -4.7712032070782706e-01 +3.3873695290165488e-03
-3.4000000000000017e+00 +4.6417093092697312e+00 +0.0000000000000000e+00 -3.3999951162713016e+00 +2.5969758306477325e-02 -4.7712027773658328e-01 +3.3874015796874469e-03
-3.5000000000000018e+00 +4.6414114223129470e+00 +0.0000000000000000e+00 -3.4999946725560585e+00 +2.5969811895632189e-02 -4.7712023140791904e-01 +3.3874331887286729e-03
-3.6000000000000019e+00 +4.6411049009859289e+00 +0.0000000000000000e+00 -3.5999942027472716e+00 +2.5969861613507124e-02 -4.7712018158792507e-01 +3.3874643069304604e-03
-3.7000000000000020e+00 +4.6407897452918627e+00 +0.0000000000000000e+00 -3.6999937060994168e+00 +2.5969907084844344e-02 -4.7712012814258253e-01 +3.3874948851200437e-03
-3.8000000000000020e+00 +4.6404659552340659e+00 +0.0000000000000000e+00 -3.7999931818669714e+00 +2.5969947934136709e-02 -4.7712007093776015e-01 +3.3875248741630144e-03
-3.9000000000000021e+00 +4.6401335308159881e+00 +0.0000000000000000e+00 -3.8999926293044123e+00 +2.5969983785614815e-02 -4.7712000983920805e-01 +3.3875542249646733e-03
-4.0000000000000018e+00 +4.6397924720412131e+00 +0.0000000000000000e+00 -3.9999920476662179e+00 +2.5970014263234104e-02 -4.7711994471255398e-01 +3.3875828884713899e-03
-4.1000000000000014e+00 +4.6394427789134625e+00 +0.0000000000000000e+00 -4.0999914362068663e+00 +2.5970039115504304e-02 -4.7711987546629053e-01 +3.3876108416597455e-03
-4.2000000000000011e+00 +4.6390844514365961e+00 +0.0000000000000000e+00 -4.1999907941808381e+00 +2.5970058590245305e-02 -4.7711980218087946e-01 +3.3876381654880626e-03
-4.3000000000000007e+00 +4.6387174896146117e+00 +0.0000000000000000e+00 -4.2999901208426135e+00 +2.5970073060212723e-02 -4.7711972497992883e-01 +3.3876649668525085e-03
-4.4000000000000004e+00 +4.6383418934516421e+00 +0.0000000000000000e+00 -4.3999894154466741e+00 +2.5970082898235016e-02 -4.7711964398721646e-01 +3.3876913525722006e-03
-4.5000000000000000e+00 +4.6379576629519530e+00 +0.0000000000000000e+00 -4.4999886772475008e+00 +2.5970088477222944e-02 -4.7711955932670364e-01 +3.3877174293836460e-03
-4.5999999999999996e+00 +4.6375647981199402e+00 +0.0000000000000000e+00 -4.5999879054995780e+00 +2.5970090170179067e-02 -4.7711947112254749e-01 +3.3877433039351621e-03
-4.6999999999999993e+00 +4.6371632989601288e+00 +0.0000000000000000e+00 -4.6999870994573891e+00 +2.5970088350207206e-02 -4.7711937949911348e-01 +3.3877690827812984e-03
-4.7999999999999989e+00 +4.6367531654771703e+00 +0.0000000000000000e+00 -4.7999862583754194e+00 +2.5970083390521932e-02 -4.7711928458098890e-01 +3.3877948723772429e-03
-4.8999999999999986e+00 +4.6363343976758404e+00 +0.0000000000000000e+00 -4.8999853815081540e+00 +2.5970075664458154e-02 -4.7711918649299540e-01 +3.3878207790732241e-03
-4.9999999999999982e+00 +4.6359069955610357e+00 +0.0000000000000000e+00 -4.9999844681100800e+00 +2.5970065545480599e-02 -4.7711908536020176e-01 +3.3878469091089070e-03
-5.0999999999999979e+00 +4.6354709591377716e+00 +0.0000000000000000e+00 -5.0999835174356853e+00 +2.5970053407193407e-02 -4.7711898130793734e-01 +3.3878733686077611e-03
-5.1999999999999975e+00 +4.6350262884111828e+00 +0.0000000000000000e+00 -5.1999825287394588e+00 +2.5970039623349709e-02 -4.7711887446180395e-01 +3.3879002635714452e-03
-5.2999999999999972e+00 +4.6345729833865175e+00 +0.0000000000000000e+00 -5.2999815012758900e+00 +2.5970024567861232e-02 -4.7711876494768973e-01 +3.3879276998741640e-03
-5.3999999999999968e+00 +4.6341110440691367e+00 +0.0000000000000000e+00 -5.3999804342994695e+00 +2.5970008614807943e-02 -4.7711865289178224e-01 +3.3879557832570181e-03
-5.4999999999999964e+00 +4.6336404704645124e+00 +0.0000000000000000e+00 -5.4999793270646888e+00 +2.5969992138447674e-02 -4.7711853842058005e-01 +3.3879846193223431e-03
-5.5999999999999961e+00 +4.6331612625782235e+00 +0.0000000000000000e+00 -5.5999781788260421e+00 +2.5969975513225795e-02 -4.7711842166090723e-01 +3.3880143135280451e-03
-5.6999999999999957e+00 +4.6326734204159559e+00 +0.0000000000000000e+00 -5.6999769888380216e+00 +2.5969959113784937e-02 -4.7711830273992517e-01 +3.3880449711819081e-03
-5.7999999999999954e+00 +4.6321769439834988e+00 +0.0000000000000000e+00 -5.7999757563551233e+00 +2.5969943314974722e-02 -4.7711818178514670e-01 +3.3880766974359040e-03
-5.8999999999999950e+00 +4.6316718332867417e+00 +0.0000000000000000e+00 -5.8999744806318422e+00 +2.5969928491861465e-02 -4.7711805892444809e-01 +3.3881095972804896e-03
-5.9999999999999947e+00 +4.6311580883316736e+00 +0.0000000000000000e+00 -5.9999731609226759e+00 +2.5969915019737971e-02 -4.7711793428608229e-01 +3.3881437755388772e-03
-6.0999999999999943e+00 +4.6306357091243795e+00 +0.0000000000000000e+00 -6.0999717964821230e+00 +2.5969903228766033e-02 -4.7711780805927700e-01 +3.3881792848619616e-03
-6.1999999999999940e+00 +4.6301046956710383e+00 +0.0000000000000000e+00 -6.1999703865646820e+00 +2.5969893267710827e-02 -4.7711768067598387e-01 +3.3882159696423026e-03
-6.2999999999999936e+00 +4.6295650479779127e+00 +0.0000000000000000e+00 -6.2999689304248534e+00 +2.5969885240076266e-02 -4.7711755262866384e-01 +3.3882536222443853e-03
-6.3999999999999932e+00 +4.6290167660513424e+00 +0.0000000000000000e+00 -6.3999674273171383e+00 +2.5969879249544761e-02 -4.7711742440954175e-01 +3.3882920351135650e-03
-6.4999999999999929e+00 +4.6284598498977347e+00 +0.0000000000000000e+00 -6.4999658764960389e+00 +2.5969875399983036e-02 -4.7711729651059209e-01 +3.3883310007810558e-03
-6.5999999999999925e+00 +4.6278942995235548e+00 +0.0000000000000000e+00 -6.5999642772160581e+00 +2.5969873795448004e-02 -4.7711716942352689e-01 +3.3883703118689390e-03
-6.6999999999999922e+00 +4.6273201149353191e+00 +0.0000000000000000e+00 -6.6999626287317007e+00 +2.5969874540192520e-02 -4.7711704363978252e-01 +3.3884097610951880e-03
-6.7999999999999918e+00 +4.6267372961395834e+00 +0.0000000000000000e+00 -6.7999609302974706e+00 +2.5969877738671199e-02 -4.7711691965050596e-01 +3.3884491412787148e-03
-6.8999999999999915e+00 +4.6261458431429352e+00 +0.0000000000000000e+00 -6.8999591811678735e+00 +2.5969883495546169e-02 -4.7711679794654266e-01 +3.3884882453444425e-03
-6.9999999999999911e+00 +4.6255457559519861e+00 +0.0000000000000000e+00 -6.9999573805974160e+00 +2.5969891915692635e-02 -4.7711667901842186e-01 +3.3885268663283834e-03
-7.0999999999999908e+00 +4.6249370345733611e+00 +0.0000000000000000e+00 -7.0999555278406055e+00 +2.5969903104204689e-02 -4.7711656335634506e-01 +3.3885647973827542e-03
-7.1999999999999904e+00 +4.6243196790136913e+00 +0.0000000000000000e+00 -7.1999536221519485e+00 +2.5969917166400864e-02 -4.7711645145017129e-01 +3.3886018317811069e-03
-7.2999999999999901e+00 +4.6236936892796026e+00 +0.0000000000000000e+00 -7.2999516627859533e+00 +2.5969934207829674e-02 -4.7711634378940437e-01 +3.3886377629234804e-03
-7.3999999999999897e+00 +4.6230590653777099e+00 +0.0000000000000000e+00 -7.3999496489971293e+00 +2.5969954334275222e-02 -4.7711624086317961e-01 +3.3886723843415852e-03
-7.4999999999999893e+00 +4.6224158073146064e+00 +0.0000000000000000e+00 -7.4999475800399846e+00 +2.5969977651762680e-02 -4.7711614316025086e-01 +3.3887054897039971e-03
-7.5999999999999890e+00 +4.6217639150968548e+00 +0.0000000000000000e+00 -7.5999454551690278e+00 +2.5970004266563675e-02 -4.7711605116897543e-01 +3.3887368728213823e-03
-7.6999999999999886e+00 +4.6211033887309796e+00 +0.0000000000000000e+00 -7.6999432736387687e+00 +2.5970034285201785e-02 -4.7711596537730222e-01 +3.3887663276517548e-03
-7.7999999999999883e+00 +4.6204342282234565e+00 +0.0000000000000000e+00 -7.7999410347037177e+00 +2.5970067814457883e-02 -4.7711588627275797e-01 +3.3887936483057530e-03
-7.8999999999999879e+00 +4.6197564335807053e+00 +0.0000000000000000e+00 -7.8999387376183829e+00 +2.5970104961375386e-02 -4.7711581434243300e-01 +3.3888186290519330e-03
-7.9999999999999876e+00 +4.6190700048090800e+00 +0.0000000000000000e+00 -7.9999363816372737e+00 +2.5970145833265641e-02 -4.7711575007296780e-01 +3.3888410643221072e-03
-8.0999999999999872e+00 +4.6183749419148601e+00 +0.0000000000000000e+00 -8.0999339660149001e+00 +2.5970190434265548e-02 -4.7711569369371098e-01 +3.3888608306643048e-03
-8.1999999999999869e+00 +4.6176712449042494e+00 +0.0000000000000000e+00 -8.1999314900057705e+00 +2.5970238353964718e-02 -4.7711564440437160e-01 +3.3888781331667928e-03
-8.2999999999999865e+00 +4.6169589137833871e+00 +0.0000000000000000e+00 -8.2999289528643931e+00 +2.5970289077708909e-02 -4.7711560114667401e-01 +3.3888932592170871e-03
-8.3999999999999861e+00 +4.6162379485583687e+00 +0.0000000000000000e+00 -8.3999263538452773e+00 +2.5970342090366305e-02 -4.7711556286219559e-01 +3.3889064962285761e-03
-8.4999999999999858e+00 +4.6155083492352640e+00 +0.0000000000000000e+00 -8.4999236922029304e+00 +2.5970396876311013e-02 -4.7711552849236311e-01 +3.3889181316404766e-03
-8.5999999999999854e+00 +4.6147701158201349e+00 +0.0000000000000000e+00 -8.5999209671918635e+00 +2.5970452919406667e-02 -4.7711549697845129e-01 +3.3889284529177834e-03
-8.6999999999999851e+00 +4.6140232483190573e+00 +0.0000000000000000e+00 -8.6999181780665840e+00 +2.5970509702989926e-02 -4.7711546726158027e-01 +3.3889377475511693e-03
-8.7999999999999847e+00 +4.6132677467381384e+00 +0.0000000000000000e+00 -8.7999153240816010e+00 +2.5970566709854110e-02 -4.7711543828271369e-01 +3.3889463030568672e-03
-8.8999999999999844e+00 +4.6125036110835369e+00 +0.0000000000000000e+00 -8.8999124044914240e+00 +2.5970623422232806e-02 -4.7711540898265609e-01 +3.3889544069765059e-03
-8.9999999999999840e+00 +4.6117308413614815e+00 +0.0000000000000000e+00 -8.9999094185505655e+00 +2.5970679321783503e-02 -4.7711537830205170e-01 +3.3889623468769349e-03
-9.0999999999999837e+00 +4.6109494375782898e+00 +0.0000000000000000e+00 -9.0999063655135348e+00 +2.5970733889571263e-02 -4.7711534518138121e-01 +3.3889704103499856e-03
-9.1999999999999833e+00 +4.6101593997403887e+00 +0.0000000000000000e+00 -9.1999032446348465e+00 +2.5970786606052402e-02 -4.7711530856096024e-01 +3.3889788850122284e-03
-9.2999999999999829e+00 +4.6093607278543312e+00 +0.0000000000000000e+00 -9.2999000551690116e+00 +2.5970836951058202e-02 -4.7711526738093790e-01 +3.3889880585046758e-03
-9.3999999999999826e+00 +4.6085534219268194e+00 +0.0000000000000000e+00 -9.3998967963705464e+00 +2.5970884403778677e-02 -4.7711522058129396e-01 +3.3889982184924510e-03
-9.4999999999999822e+00 +4.6077374819647199e+00 +0.0000000000000000e+00 -9.4998934674939672e+00 +2.5970928442746344e-02 -4.7711516710183732e-01 +3.3890096526644296e-03
-9.5999999999999819e+00 +4.6069129079750857e+00 +0.0000000000000000e+00 -9.5998900677937922e+00 +2.5970968545819997e-02 -4.7711510588220424e-01 +3.3890226487328407e-03
-9.6999999999999815e+00 +4.6060796999651732e+00 +0.0000000000000000e+00 -9.6998865965245411e+00 +2.5971004190168560e-02 -4.7711503586185583e-01 +3.3890374944328203e-03
-9.7999999999999812e+00 +4.6052378579424627e+00 +0.0000000000000000e+00 -9.7998830529407375e+00 +2.5971034852254951e-02 -4.7711495598007703e-01 +3.3890544775219376e-03
-9.8999999999999808e+00 +4.6043873819146768e+00 +0.0000000000000000e+00 -9.8998794362969047e+00 +2.5971060007819943e-02 -4.7711486517597484e-01 +3.3890738857796842e-03
-9.9999999999999805e+00 +4.6035282718898012e+00 +0.0000000000000000e+00 -9.9998757458475698e+00 +2.5971079131866099e-02 -4.7711476238847567e-01 +3.3890960070069045e-03
-1.0099999999999980e+01 +4.6026605278761021e+00 +0.0000000000000000e+00 -1.0099871980847263e+01 +2.5971091839544068e-02 -4.7711464687444738e-01 +3.3891210422795325e-03
-1.0199999999999980e+01 +4.6017841498821381e+00 +0.0000000000000000e+00 -1.0199868140550519e+01 +2.5971098311310645e-02 -4.7711451916798547e-01 +3.3891488443643196e-03
-1.0299999999999979e+01 +4.6008991379167528e+00 +0.0000000000000000e+00 -1.0299864224211873e+01 +2.5971098869802887e-02 -4.7711438012397150e-01 +3.3891791785117670e-03
-1.0399999999999979e+01 +4.6000054919890587e+00 +0.0000000000000000e+00 -1.0399860231085865e+01 +2.5971093837982202e-02 -4.7711423059762159e-01 +3.3892118098350146e-03
-1.0499999999999979e+01 +4.5991032121084219e+00 +0.0000000000000000e+00 -1.0499856160427036e+01 +2.5971083539145408e-02 -4.7711407144449636e-01 +3.3892465033065569e-03
-1.0599999999999978e+01 +4.5981922982844488e+00 +0.0000000000000000e+00 -1.0599852011489931e+01 +2.5971068296935938e-02 -4.7711390352051264e-01 +3.3892830237549744e-03
-1.0699999999999978e+01 +4.5972727505269670e+00 +0.0000000000000000e+00 -1.0699847783529098e+01 +2.5971048435355030e-02 -4.7711372768195348e-01 +3.3893211358616872e-03
-1.0799999999999978e+01 +4.5963445688460132e+00 +0.0000000000000000e+00 -1.0799843475799088e+01 +2.5971024278772965e-02 -4.7711354478548007e-01 +3.3893606041577543e-03
-1.0899999999999977e+01 +4.5954077532518154e+00 +0.0000000000000000e+00 -1.0899839087554454e+01 +2.5970996151940397e-02 -4.7711335568814095e-01 +3.3894011930206774e-03
-1.0999999999999977e+01 +4.5944623037547778e+00 +0.0000000000000000e+00 -1.0999834618049752e+01 +2.5970964379999687e-02 -4.7711316124738423e-01 +3.3894426666712515e-03
-1.1099999999999977e+01 +4.5935082203654662e+00 +0.0000000000000000e+00 -1.1099830066539539e+01 +2.5970929288496290e-02 -4.7711296232106731e-01 +3.3894847891704307e-03
-1.1199999999999976e+01 +4.5925455030945930e+00 +0.0000000000000000e+00 -1.1199825432278375e+01 +2.5970891203390214e-02 -4.7711275976746942e-01 +3.3895273244162372e-03
-1.1299999999999976e+01 +4.5915741519529982e+00 +0.0000000000000000e+00 -1.1299820714520825e+01 +2.5970850451067506e-02 -4.7711255444530021e-01 +3.3895700361406839e-03
-1.1399999999999975e+01 +4.5905941669516377e+00 +0.0000000000000000e+00 -1.1399815912521452e+01 +2.5970807358351812e-02 -4.7711234721371298e-01 +3.3896126879067365e-03
-1.1499999999999975e+01 +4.5896055481015665e+00 +0.0000000000000000e+00 -1.1499811025534823e+01 +2.5970762252515930e-02 -4.7711213893231463e-01 +3.3896550431053072e-03
-1.1599999999999975e+01 +4.5886082954139225e+00 +0.0000000000000000e+00 -1.1599806052815506e+01 +2.5970715461293540e-02 -4.7711193046117628e-01 +3.3896968649522806e-03
-1.1699999999999974e+01 +4.5876024088999108e+00 +0.0000000000000000e+00 -1.1699800993618071e+01 +2.5970667312890792e-02 -4.7711172266084573e-01 +3.3897379164855605e-03
