# multipoles
# s[mm] polynom_b[n=0][T/m^n] polynom_b[n=1][T/m^n] polynom_b[n=2][T/m^n] polynom_b[n=3][T/m^n] polynom_b[n=4][T/m^n] polynom_b[n=5][T/m^n] polynom_b[n=6][T/m^n] 
+0.0000000000000000e+00 -4.7712382709850404e-01 +7.3139668676535567e-04 +1.3024530043722685e-01 +1.9117617048949956e+01 +1.6682393898587848e+03 -5.7000198047466736e+04 -1.0258374634121444e+07 
-1.0000000000000001e-01 -4.7712379720558884e-01 +7.4290028917941957e-04 +1.2814018268456717e-01 +1.8868523111520261e+01 +1.7222593719166493e+03 -5.5514766910274790e+04 -1.0549910469180498e+07 
-2.0000000000000001e-01 -4.7712377291177066e-01 +7.5461973086040843e-04 +1.2629541190752988e-01 +1.8596177309264252e+01 +1.7725879234397203e+03 -5.3860732932726962e+04 -1.0826841544384904e+07 
-3.0000000000000004e-01 -4.7712375375760196e-01 +7.6654310281800493e-04 +1.2471184073182055e-01 +1.8302500818940349e+01 +1.8191169482046810e+03 -5.2053575717381107e+04 -1.1088475267845873e+07 
-4.0000000000000002e-01 -4.7712373928364932e-01 +7.7865847074059451e-04 +1.2339032639808015e-01 +1.7989415546470266e+01 +1.8617382652267420e+03 -5.0108779191998525e+04 -1.1334118727801928e+07 
-5.0000000000000000e-01 -4.7712372903052536e-01 +7.9095387832396320e-04 +1.2233173370238723e-01 +1.7658844035909571e+01 +1.9003435596288234e+03 -4.8041831109411411e+04 -1.1563078465854263e+07 
-5.9999999999999998e-01 -4.7712372253884061e-01 +8.0341734724308548e-04 +1.2153692839290678e-01 +1.7312709499933998e+01 +1.9348245075804771e+03 -4.5868223321010242e+04 -1.1774661050395563e+07 
-6.9999999999999996e-01 -4.7712371934920356e-01 +8.1603688058069378e-04 +1.2100677663095151e-01 +1.6952935739021910e+01 +1.9650727889614557e+03 -4.3603451371012961e+04 -1.1968173129794385e+07 
-7.9999999999999993e-01 -4.7712371900225758e-01 +8.2880046122786870e-04 +1.2074214889657021e-01 +1.6581447206254058e+01 +1.9909800171506674e+03 -4.1263014934385661e+04 -1.2142921097083854e+07 
-8.9999999999999991e-01 -4.7712372103860207e-01 +8.4169605284704473e-04 +1.2074390975232276e-01 +1.6200168997081054e+01 +2.0124379317832095e+03 -3.8862417817677902e+04 -1.2298211982480668e+07 
-9.9999999999999989e-01 -4.7712372499884736e-01 +8.5471160413209545e-04 +1.2101292344540296e-01 +1.5811026748453653e+01 +2.0293383004131301e+03 -3.6417167453644011e+04 -1.2433352995730553e+07 
-1.0999999999999999e+00 -4.7712373042359157e-01 +8.6783504633637643e-04 +1.2155005108011915e-01 +1.5415946735156842e+01 +2.0415729691715840e+03 -3.3942775536074478e+04 -1.2547651743905695e+07 
-1.2000000000000000e+00 -4.7712373685340070e-01 +8.8105429466423186e-04 +1.2235614705691648e-01 +1.5016855838091228e+01 +2.0490339351520620e+03 -3.1454757872122798e+04 -1.2640416571534229e+07 
-1.3000000000000000e+00 -4.7712374382880646e-01 +8.9435725163819328e-04 +1.2343205826585521e-01 +1.4615681474142100e+01 +2.0516133632198862e+03 -2.8968634065537837e+04 -1.2710956630315747e+07 
-1.4000000000000001e+00 -4.7712375089031456e-01 +9.0773180621102638e-04 +1.2477862439988720e-01 +1.4214351642525752e+01 +2.0492035844091065e+03 -2.6499927854560920e+04 -1.2758581869275587e+07 
-1.5000000000000002e+00 -4.7712375757838660e-01 +9.2116583538916089e-04 +1.2639667532437895e-01 +1.3814794894056282e+01 +2.0416971438111161e+03 -2.4064166989688965e+04 -1.2782603241200970e+07 
-1.6000000000000003e+00 -4.7712376343344176e-01 +9.3464720424080302e-04 +1.2828703043219081e-01 +1.3418940352256040e+01 +2.0289868185660182e+03 -2.1676883428865651e+04 -1.2782332789139222e+07 
-1.7000000000000004e+00 -4.7712376799583017e-01 +9.4816376972534826e-04 +1.3045049446971391e-01 +1.3028717622184420e+01 +2.0109656995403279e+03 -1.9353612875408286e+04 -1.2757084024368931e+07 
-1.8000000000000005e+00 -4.7712377080585244e-01 +9.6170337781114593e-04 +1.3288785982898793e-01 +1.2646056892459390e+01 +1.9875271470502189e+03 -1.7109895432370624e+04 -1.2706171701900532e+07 
-1.9000000000000006e+00 -4.7712377140374673e-01 +9.7525386823943004e-04 +1.3559990378579284e-01 +1.2272888819535421e+01 +1.9585648490674223e+03 -1.4961275006419130e+04 -1.2628912095642358e+07 
-2.0000000000000004e+00 -4.7712376932962336e-01 +9.8880306373769406e-04 +1.3858737711630709e-01 +1.1911144125796662e+01 +1.9239729701148203e+03 -1.2923294508054054e+04 -1.2524623386555854e+07 
-2.1000000000000005e+00 -4.7712376417982116e-01 +1.0023182084347498e-03 +1.4184439330616622e-01 +1.1562798584765293e+01 +1.8837695572907219e+03 -1.1010071047457282e+04 -1.2393154480538709e+07 
-2.2000000000000006e+00 -4.7712375581793759e-01 +1.0157253029203636e-03 +1.4534757728850631e-01 +1.1229416126521841e+01 +1.8383551350553969e+03 -9.2273668014714385e+03 -1.2236253029643534e+07 
-2.3000000000000007e+00 -4.7712374418349285e-01 +1.0289504569157744e-03 +1.4907072977796357e-01 +1.0912237464355202e+01 +1.7882107804003638e+03 -7.5774201247108522e+03 -1.2056156264982628e+07 
-2.4000000000000008e+00 -4.7712372921596713e-01 +1.0419198277983783e-03 +1.5298764668437731e-01 +1.0612501289990805e+01 +1.7338176788514925e+03 -6.0624516547931253e+03 -1.1855102342753880e+07 
-2.5000000000000009e+00 -4.7712371085476452e-01 +1.0545595954599772e-03 +1.5707211780208252e-01 +1.0331445614578270e+01 +1.6756570641274434e+03 -4.6846776896092279e+03 -1.1635329419671098e+07 
-2.6000000000000010e+00 -4.7712368903923075e-01 +1.0667959621451491e-03 +1.6129792993001715e-01 +1.0070307762871503e+01 +1.6142101509179888e+03 -3.4463100673003055e+03 -1.1399075317818051e+07 
-2.7000000000000011e+00 -4.7712366370861836e-01 +1.0785551594073208e-03 +1.6563886333097638e-01 +9.8303241444555667e+00 +1.5499581894994576e+03 -2.3495547159139742e+03 -1.1148577748664279e+07 
-2.8000000000000012e+00 -4.7712363480212155e-01 +1.0897634474362756e-03 +1.7006869629345725e-01 +9.6127302572131601e+00 +1.4833823762313873e+03 -1.3966115749674814e+03 -1.0886073886251776e+07 
-2.9000000000000012e+00 -4.7712360225885253e-01 +1.1003471222367385e-03 +1.7456120332988942e-01 +9.4187604644955982e+00 +1.4149638744855622e+03 -5.8967321487804838e+02 -1.0613800432361243e+07 
-3.0000000000000013e+00 -4.7712356601784678e-01 +1.1102325146081055e-03 +1.7909015625723196e-01 +9.2496479993111578e+00 +1.3451837873554375e+03 +6.9075265850937413e+01 -1.0333993471262103e+07 
-3.1000000000000014e+00 -4.7712352601803854e-01 +1.1193459960867887e-03 +1.8362932190132505e-01 +9.1066247772246687e+00 +1.2745231919806743e+03 +5.7745741585742121e+02 -1.0048888609334553e+07 
-3.2000000000000015e+00 -4.7712348219830042e-01 +1.1276139800340469e-03 +1.8815246768146671e-01 +8.9909213451093315e+00 +1.2034630258907171e+03 +9.3330583385145223e+02 -9.7607204204052277e+06 
-3.3000000000000016e+00 -4.7712343449739414e-01 +1.1349629265573313e-03 +1.9263335611420895e-01 +8.9037667209174156e+00 +1.1324841803779555e+03 +1.1344631982811745e+03 -9.4717228585404437e+06 
-3.4000000000000017e+00 -4.7712338285401523e-01 +1.1413193446752614e-03 +1.9704575098140931e-01 +8.8463883101057341e+00 +1.0620673788745967e+03 +1.1787828599857150e+03 -9.1841286749173384e+06 
-3.5000000000000018e+00 -4.7712332720673328e-01 +1.1466097943826361e-03 +2.0136341092910046e-01 +8.8200118294479104e+00 +9.9269328396084063e+02 +1.0641293831834328e+03 -8.9001698856975697e+06 
-3.6000000000000019e+00 -4.7712326749404432e-01 +1.1507608931296289e-03 +2.0556009621887070e-01 +8.8258610987570059e+00 +9.2484236525868801e+02 +7.8837985461280778e+02 -8.6220771399169583e+06 
-3.7000000000000020e+00 -4.7712320365433780e-01 +1.1536993134159373e-03 +2.0960956538607498e-01 +8.8651580935945109e+00 +8.5899495337657322e+02 +3.4942368529333532e+02 -8.3520799510463076e+06 
-3.8000000000000020e+00 -4.7712313562590392e-01 +1.1553517919895885e-03 +2.1348557713449595e-01 +8.9391226622642215e+00 +7.9563119313147638e+02 -2.5483566205932920e+02 -8.0924064501089258e+06 
-3.9000000000000021e+00 -4.7712306334691695e-01 +1.1556451283561717e-03 +2.1716188857710256e-01 +9.0489725421244849e+00 +7.3523107000559548e+02 -1.0264806363680618e+03 -7.8452834928034805e+06 
-4.0000000000000018e+00 -4.7712298675588777e-01 +1.1545064540644330e-03 +2.2061235247730757e-01 +9.1959154302308832e+00 +6.7827220006124310e+02 -1.9675477692731986e+03 -7.6129264546850305e+06 
-4.1000000000000014e+00 -4.7712290584075912e-01 +1.1519101854311771e-03 +2.2381906185203190e-01 +9.3800390088324086e+00 +6.2506205841025405e+02 -3.0750383655286851e+03 -7.3967557160519715e+06 
-4.2000000000000011e+00 -4.7712282074585338e-01 +1.1479852393191496e-03 +2.2677418463992655e-01 +9.5980762418649981e+00 +5.7573026556433058e+02 -4.3323506936884951e+03 -7.1972490271442523e+06 
-4.3000000000000007e+00 -4.7712273164885671e-01 +1.1429014757567105e-03 +2.2946756788921407e-01 +9.8459792096704906e+00 +5.3046136179478060e+02 -5.7209888932428330e+03 -7.0150178775349567e+06 
-4.4000000000000004e+00 -4.7712263872746319e-01 +1.1368288183745848e-03 +2.3188903340417968e-01 +1.0119702421873685e+01 +4.8944024040140414e+02 -7.2225213965149314e+03 -6.8506714644936463e+06 
-4.5000000000000000e+00 -4.7712254215959260e-01 +1.1299372400064324e-03 +2.3402842075797456e-01 +1.0415198815212419e+01 +4.5285159865928597e+02 -8.8185087576138958e+03 -6.7048184858176261e+06 
-4.5999999999999996e+00 -4.7712244212339994e-01 +1.1223967607770563e-03 +2.3587558789863039e-01 +1.0728419799904383e+01 +4.2087993834221021e+02 -1.0490503995451503e+04 -6.5780671798423892e+06 
-4.6999999999999993e+00 -4.7712233879727994e-01 +1.1143774504185555e-03 +2.3742041130071989e-01 +1.1055315188027953e+01 +3.9370956838479555e+02 -1.2220052276914719e+04 -6.4710253554790281e+06 
-4.7999999999999989e+00 -4.7712223235989953e-01 +1.1060494277406931e-03 +2.3865278859388350e-01 +1.1391833200156153e+01 +3.7152457443466818e+02 -1.3988691030917236e+04 -6.3843003071362665e+06 
-4.8999999999999986e+00 -4.7712212299020718e-01 +1.0975828640982037e-03 +2.3956263960480931e-01 +1.1733920358818269e+01 +3.5450880395963048e+02 -1.5777949424258130e+04 -6.3184987604688872e+06 
-4.9999999999999982e+00 -4.7712201086743339e-01 +1.0891479837173978e-03 +2.4013990518443695e-01 +1.2077521473561143e+01 +3.4284590404182654e+02 -1.7569348363723962e+04 -6.2742270979548292e+06 
-5.0999999999999979e+00 -4.7712189617114431e-01 +1.0809150640329179e-03 +2.4037455340623948e-01 +1.2418579620813469e+01 +3.3671921377179797e+02 -1.9344400452148759e+04 -6.2520908818039251e+06 
-5.1999999999999975e+00 -4.7712177908120018e-01 +1.0730544368846033e-03 +2.4025657371725351e-01 +1.2753036104805590e+01 +3.3631188439160326e+02 -2.1084609857466254e+04 -6.2526954503958607e+06 
-5.2999999999999972e+00 -4.7712165977782867e-01 +1.0657364931908691e-03 +2.3977598486961668e-01 +1.3076830313763462e+01 +3.4180674578334907e+02 -2.2771471564149568e+04 -6.2766453382973429e+06 
-5.3999999999999968e+00 -4.7712153844160271e-01 +1.0591316767351038e-03 +2.3892283191651137e-01 +1.3385899894201691e+01 +3.5338636921825491e+02 -2.4386472461216537e+04 -6.3245445911347726e+06 
-5.4999999999999964e+00 -4.7712141525346879e-01 +1.0534104920906608e-03 +2.3768718865001320e-01 +1.3676180513413566e+01 +3.7123303633374502e+02 -2.5911090057498463e+04 -6.3969966670944849e+06 
-5.5999999999999961e+00 -4.7712129039475337e-01 +1.0487435049734352e-03 +2.3605915773375960e-01 +1.3943605837666025e+01 +3.9552874601818746e+02 -2.7326792425168242e+04 -6.4946044961890103e+06 
-5.6999999999999957e+00 -4.7712116404719518e-01 +1.0453013382800593e-03 +2.3402887421499394e-01 +1.4184107647710144e+01 +4.2645515950317093e+02 -2.8615038970869937e+04 -6.6179702593683228e+06 
-5.7999999999999954e+00 -4.7712103639294878e-01 +1.0432546788662885e-03 +2.3158650465481201e-01 +1.4393615629977381e+01 +4.6419363012038008e+02 -2.9757279297883062e+04 -6.7676955674944278e+06 
-5.8999999999999950e+00 -4.7712090761459175e-01 +1.0427742762599782e-03 +2.2872224784149939e-01 +1.4568057405635130e+01 +5.0892519885876101e+02 -3.0734953455305149e+04 -6.9443814705167562e+06 
-5.9999999999999947e+00 -4.7712077789504703e-01 +1.0440304777157047e-03 +2.2542627217925046e-01 +1.4703380989076653e+01 +5.6083312110245549e+02 -3.1529670921906851e+04 -7.1486470647892551e+06 
-6.0999999999999943e+00 -4.7712064747417626e-01 +1.0471522307219194e-03 +2.2169301812073025e-01 +1.4796664358024445e+01 +6.2006121555205789e+02 -3.2129711629694255e+04 -7.3810839920310155e+06 
-6.1999999999999940e+00 -4.7712051673988387e-01 +1.0520732734164773e-03 +2.1754996213116484e-01 +1.4849078963676032e+01 +6.8618691047192874e+02 -3.2542016482613442e+04 -7.6400097892798996e+06 
-6.2999999999999936e+00 -4.7712038611828644e-01 +1.0586472104646429e-03 +2.1304243501425424e-01 +1.4863184449183255e+01 +7.5846209813320104e+02 -3.2777500034570585e+04 -7.9224617439206485e+06 
-6.3999999999999932e+00 -4.7712025603637109e-01 +1.0667270485349980e-03 +2.0821602579251294e-01 +1.4841537105228163e+01 +8.3613485295870009e+02 -3.2846889360010100e+04 -8.2254738313692762e+06 
-6.4999999999999929e+00 -4.7712012692084116e-01 +1.0761656521375293e-03 +2.0311630468367287e-01 +1.4786697699112336e+01 +9.1845351399794811e+02 -3.2760936851020921e+04 -8.5460811412606686e+06 
-6.5999999999999925e+00 -4.7711999919810982e-01 +1.0868157380026899e-03 +1.9778882262775496e-01 +1.4701231654860798e+01 +1.0046666903885822e+03 -3.2530421215800372e+04 -8.8813198964663893e+06 
-6.6999999999999922e+00 -4.7711987329426175e-01 +1.0985298670194875e-03 +1.9227910735557865e-01 +1.4587709306142289e+01 +1.0940233291288321e+03 -3.2166148902770878e+04 -9.2282277584207822e+06 
-6.7999999999999918e+00 -4.7711974963504655e-01 +1.1111604407444472e-03 +1.8663266370914286e-01 +1.4448706015034993e+01 +1.1857727030517576e+03 -3.1678954747799336e+04 -9.5838437586661913e+06 
-6.8999999999999915e+00 -4.7711962864586938e-01 +1.1245596908873059e-03 +1.8089497294230716e-01 +1.4286802491547832e+01 +1.2791644171490757e+03 -3.1079703769237149e+04 -9.9452083120877072e+06 
-6.9999999999999911e+00 -4.7711951075177200e-01 +1.1385796752191306e-03 +1.7511149103531512e-01 +1.4104584936858309e+01 +1.3734484386919792e+03 -3.0379291974180844e+04 -1.0309363358859321e+07 
-7.0999999999999908e+00 -4.7711939637741541e-01 +1.1530722712327324e-03 +1.6932764783260706e-01 +1.3904645238819302e+01 +1.4678751020100481e+03 -2.9588647431283312e+04 -1.0673352358409947e+07 
-7.1999999999999904e+00 -4.7711928594707026e-01 +1.1678891671141043e-03 +1.6358884615504621e-01 +1.3689581258386898e+01 +1.5616951240715869e+03 -2.8718731903931563e+04 -1.1034220363929071e+07 
-7.2999999999999901e+00 -4.7711917988458996e-01 +1.1828818578668396e-03 +1.5794045933164527e-01 +1.3461996952654138e+01 +1.6541596439595887e+03 -2.7780541500454379e+04 -1.1389014191242127e+07 
-7.3999999999999897e+00 -4.7711907861341341e-01 +1.1979016363439575e-03 +1.5242783263728571e-01 +1.3224502657586491e+01 +1.7445201884157041e+03 -2.6785108280824483e+04 -1.1734782241234925e+07 
-7.4999999999999893e+00 -4.7711898255653384e-01 +1.2127995891058180e-03 +1.4709627994675495e-01 +1.2979715226497161e+01 +1.8320287305727647e+03 -2.5743501017909668e+04 -1.2068574767176960e+07 
-7.5999999999999890e+00 -4.7711889213647801e-01 +1.2274265885342086e-03 +1.4199108168462649e-01 +1.2730258276701363e+01 +1.9159377243507249e+03 -2.4666826583030936e+04 -1.2387444028094225e+07 
-7.6999999999999886e+00 -4.7711880777532040e-01 +1.2416332842984570e-03 +1.3715748822406665e-01 +1.2478762449831942e+01 +1.9955000293335970e+03 -2.3566231394241637e+04 -1.2688443909652676e+07 
-7.7999999999999883e+00 -4.7711872989463705e-01 +1.2552701020902728e-03 +1.3264071385737747e-01 +1.2227865476396214e+01 +2.0699690255622590e+03 -2.2452901779048807e+04 -1.2968630469316054e+07 
-7.8999999999999879e+00 -4.7711865891550204e-01 +1.2681872312451711e-03 +1.2848593801085473e-01 +1.1980212544074259e+01 +2.1385985791661369e+03 -2.1338066035074400e+04 -1.3225061747841062e+07 
-7.9999999999999876e+00 -4.7711859525662703e-01 +1.2802336970918484e-03 +1.2473801734173519e-01 +1.1738510489445993e+01 +2.2006534053486307e+03 -2.0233152517713650e+04 -1.3454843088185519e+07 
-8.0999999999999872e+00 -4.7711853907923385e-01 +1.2912937393440081e-03 +1.2143291067147882e-01 +1.1505405274444646e+01 +2.2555795829480444e+03 -1.9149548321307011e+04 -1.3655911116361056e+07 
-8.1999999999999869e+00 -4.7711848963489223e-01 +1.3013470896401788e-03 +1.1856356634946368e-01 +1.1282230377784984e+01 +2.3034521856316051e+03 -1.8093892908874193e+04 -1.3828767124227904e+07 
-8.2999999999999865e+00 -4.7711844593430530e-01 +1.3103926798883367e-03 +1.1610613705430681e-01 +1.1070112479484285e+01 +2.3445971573163629e+03 -1.7073392068961301e+04 -1.3974857197467642e+07 
-8.3999999999999861e+00 -4.7711840698683045e-01 +1.3184296420212288e-03 +1.1403653565416103e-01 +1.0870193262627364e+01 +2.3793434802365582e+03 -1.6095511537127724e+04 -1.4095625099024575e+07 
-8.4999999999999858e+00 -4.7711837180175976e-01 +1.3254571781493878e-03 +1.1233066161910156e-01 +1.0683613063366218e+01 +2.4080203061760503e+03 -1.5167708083672460e+04 -1.4192514928161433e+07 
-8.5999999999999854e+00 -4.7711833938828374e-01 +1.3314745655114242e-03 +1.1096439615722727e-01 +1.0511510734973667e+01 +2.4309570468198722e+03 -1.4297428666695330e+04 -1.4266971534795750e+07 
-8.6999999999999851e+00 -4.7711830875553485e-01 +1.3364811610075890e-03 +1.0991360756232031e-01 +1.0355023540278486e+01 +2.4484832693946037e+03 -1.3492109805345861e+04 -1.4320440009969382e+07 
-8.7999999999999847e+00 -4.7711827891254976e-01 +1.3404764020350827e-03 +1.0915414589890737e-01 +1.0215287140898388e+01 +2.4609287967770215e+03 -1.2759177468334163e+04 -1.4354366148801316e+07 
-8.8999999999999844e+00 -4.7711824886829174e-01 +1.3434598098071952e-03 +1.0866184587365889e-01 +1.0093435520866118e+01 +2.4686236489495232e+03 -1.2106046613960634e+04 -1.4370196154818125e+07 
-8.9999999999999840e+00 -4.7711821763164930e-01 +1.3454309939801281e-03 +1.0841252613715628e-01 +9.9906008648323397e+00 +2.4718980558019471e+03 -1.1540120442633959e+04 -1.4369376691175029e+07 
-9.0999999999999837e+00 -4.7711818421141566e-01 +1.3463896558018669e-03 +1.0838198637682060e-01 +9.9079134913555542e+00 +2.4710825090864355e+03 -1.1068790004293627e+04 -1.4353355108691134e+07 
-9.1999999999999833e+00 -4.7711814761632770e-01 +1.3463355910989291e-03 +1.0854601223528698e-01 +9.8465017776849297e+00 +2.4665076668331631e+03 -1.0699433712283168e+04 -1.4323578981187938e+07 
-9.2999999999999829e+00 -4.7711810685500766e-01 +1.3452686938798578e-03 +1.0888036740437146e-01 +9.8074920768664064e+00 +2.4585045014101738e+03 -1.0439416851489426e+04 -1.4281496790312771e+07 
-9.3999999999999826e+00 -4.7711806093603754e-01 +1.3431889575566452e-03 +1.0936080261697309e-01 +9.7920086961871924e+00 +2.4474041286237016e+03 -1.0296091416052046e+04 -1.4228557110516364e+07 
-9.4999999999999822e+00 -4.7711800886788941e-01 +1.3400964826168428e-03 +1.0996304684221432e-01 +9.8011736931387823e+00 +2.4335379693636255e+03 -1.0276794902201749e+04 -1.4166209348778618e+07 
-9.5999999999999819e+00 -4.7711794965896720e-01 +1.3359914763515026e-03 +1.1066281235350997e-01 +9.8361069046984788e+00 +2.4172376520040025e+03 -1.0388850460471042e+04 -1.4095903272478092e+07 
-9.6999999999999815e+00 -4.7711788231759644e-01 +1.3308742555387563e-03 +1.1143579262332072e-01 +9.8979258790326803e+00 +2.3988350534195129e+03 -1.0639566454196967e+04 -1.4019089197945194e+07 
-9.7999999999999812e+00 -4.7711780585202263e-01 +1.3247452543501475e-03 +1.1225766231013504e-01 +9.9877456707827843e+00 +2.3786622923738141e+03 -1.1036235268453996e+04 -1.3937217931426855e+07 
-9.8999999999999808e+00 -4.7711771927040042e-01 +1.3176050233561357e-03 +1.1310407557336795e-01 +1.0106678883793355e+01 +2.3570517617438531e+03 -1.1586133516063461e+04 -1.3851740915925032e+07 
-9.9999999999999805e+00 -4.7711762158246324e-01 +1.3094572026311575e-03 +1.1395092115120470e-01 +1.0255604450212697e+01 +2.3343120094733627e+03 -1.2294996077140517e+04 -1.3763946750444487e+07 
-1.0099999999999980e+01 -4.7711751210269493e-01 +1.3002524673024791e-03 +1.1477305034012603e-01 +1.0435058110325656e+01 +2.3107100819783286e+03 -1.3163224179946705e+04 -1.3674646636164807e+07 
