# multipoles
# s[mm] polynom_b[n=0][T/m^n] polynom_b[n=1][T/m^n] polynom_b[n=2][T/m^n] polynom_b[n=3][T/m^n] polynom_b[n=4][T/m^n] polynom_b[n=5][T/m^n] polynom_b[n=6][T/m^n] 
+0.0000000000000000e+00 -3.4710058207266836e-01 +1.4441764593771343e-04 +2.5013521840734476e-01 +9.0400057026435405e+00 +6.5149456312276550e+02 +9.4443578697833418e+03 -7.9401767753423881e+06 
+1.0000000000000001e-01 -3.4710061091013739e-01 +1.5919594196646769e-04 +2.5129078850678799e-01 +8.6404770016834416e+00 +6.2819314865030424e+02 +1.1551390143806337e+04 -7.8329390474675214e+06 
+2.0000000000000001e-01 -3.4710064028754828e-01 +1.7202399031239135e-04 +2.5245745073786297e-01 +8.2759651664992280e+00 +6.0192577316615416e+02 +1.3516399844915932e+04 -7.7042168493334604e+06 
+3.0000000000000004e-01 -3.4710067000401928e-01 +1.8295812440007392e-04 +2.5362038006456245e-01 +7.9460568647974785e+00 +5.7312221954865379e+02 +1.5338794358051045e+04 -7.5564914496629490e+06 
+4.0000000000000002e-01 -3.4710069985858583e-01 +1.9205469481560212e-04 +2.5476474634489471e-01 +7.6503384776241905e+00 +5.4221231849576577e+02 +1.7017981664269013e+04 -7.3922442144614905e+06 
+5.0000000000000000e-01 -3.4710072965021305e-01 +1.9937006797204253e-04 +2.5587571497185518e-01 +7.3883961117870554e+00 +5.0962594341856794e+02 +1.8553370418457136e+04 -7.2139566005222807e+06 
+5.9999999999999998e-01 -3.4710075917778455e-01 +2.0496062679257874e-04 +2.5693844508241687e-01 +7.1598155588094503e+00 +4.7579304784095098e+02 +1.9944370313781223e+04 -7.0241103403860684e+06 
+6.9999999999999996e-01 -3.4710078824011970e-01 +2.0888276608818453e-04 +2.5793809125357747e-01 +6.9641824118472444e+00 +4.4114363673375459e+02 +2.1190391525353956e+04 -6.8251873157531368e+06 
+7.9999999999999993e-01 -3.4710081663594544e-01 +2.1119289439884125e-04 +2.5885979939520520e-01 +6.8010819787533299e+00 +4.0610784929297432e+02 +2.2290845382596744e+04 -6.6196699603557680e+06 
+8.9999999999999991e-01 -3.4710084416393128e-01 +2.1194743059439760e-04 +2.5968871031092433e-01 +6.6700993706844995e+00 +3.7111589794783157e+02 +2.3245143949925954e+04 -6.4100409886797424e+06 
+9.9999999999999989e-01 -3.4710087062266959e-01 +2.1120280390185756e-04 +2.6040995714579052e-01 +6.5708194692103987e+00 +3.3659811742924728e+02 +2.4052700383186184e+04 -6.1987836287115086e+06 
+1.0999999999999999e+00 -3.4710089581068182e-01 +2.0901545036594371e-04 +2.6100866515347482e-01 +6.5028270153393013e+00 +3.0298497742748668e+02 +2.4712928524111725e+04 -5.9883817027349062e+06 
+1.2000000000000000e+00 -3.4710091952642824e-01 +2.0544181500397227e-04 +2.6146995289461850e-01 +6.4657065137289749e+00 +2.7070706039338910e+02 +2.5225243616523599e+04 -5.7813195235939827e+06 
+1.3000000000000000e+00 -3.4710094156828303e-01 +2.0053834793558250e-04 +2.6177892791626822e-01 +6.4590423338534855e+00 +2.4019515203304405e+02 +2.5589061825735364e+04 -5.5800823431190886e+06 
+1.4000000000000001e+00 -3.4710096173457333e-01 +1.9436150356524643e-04 +2.6192069169352872e-01 +6.4824187046793247e+00 +2.1188014881819316e+02 +2.5803800421161330e+04 -5.3871559189011892e+06 
+1.5000000000000002e+00 -3.4710097982354821e-01 +1.8696773993014026e-04 +2.6188033473956823e-01 +6.5354197101411637e+00 +1.8619315721958387e+02 +2.5868877941762748e+04 -5.2050269985113880e+06 
+1.6000000000000003e+00 -3.4710099563339958e-01 +1.7841351644178499e-04 +2.6164293912803027e-01 +6.6176293375887294e+00 +1.6356544803278749e+02 +2.5783714031951211e+04 -5.0361831095206076e+06 
+1.7000000000000004e+00 -3.4710100896224838e-01 +1.6875529348233772e-04 +2.6119357571872981e-01 +6.7286314629713404e+00 +1.4442851635462060e+02 +2.5547729676501855e+04 -4.8831128609081740e+06 
+1.8000000000000005e+00 -3.4710101960815992e-01 +1.5804953029040344e-04 +2.6051730585412880e-01 +6.8680098929609388e+00 +1.2921405216825877e+02 +2.5160347079409345e+04 -4.7483058114213096e+06 
+1.9000000000000006e+00 -3.4710102736912701e-01 +1.4635268465299929e-04 +2.5959917874223676e-01 +7.0353483470483402e+00 +1.1835399274554726e+02 +2.4620989915506594e+04 -4.6342527226233101e+06 
+2.0000000000000004e+00 -3.4710103204309256e-01 +1.3372121946963913e-04 +2.5842423419698179e-01 +7.2302299578489224e+00 +1.1228043927856775e+02 +2.3929087165005050e+04 -4.5434450482939221e+06 
+2.1000000000000005e+00 -3.4710103346703902e-01 +1.2022513940556302e-04 +2.5698088360453186e-01 +7.4517178396950090e+00 +1.1133367931726340e+02 +2.3087277107162990e+04 -4.4778394169739252e+06 
+2.2000000000000006e+00 -3.4710103167441086e-01 +1.0597082221567547e-04 +2.5527481673848884e-01 +7.6976643439978050e+00 +1.1544063682957483e+02 +2.2105022478017207e+04 -4.4370993065057779e+06 
+2.3000000000000007e+00 -3.4710102675682747e-01 +9.1069017035465166e-05 +2.5331702319873717e-01 +7.9658376317076618e+00 +1.2440787669409589e+02 +2.0991976584047665e+04 -4.4202325719156340e+06 
+2.4000000000000008e+00 -3.4710101880598493e-01 +7.5630462150439167e-05 +2.5111849951721321e-01 +8.2540063598790425e+00 +1.3804182529845514e+02 +1.9757788791040657e+04 -4.4262462931078356e+06 
+2.5000000000000009e+00 -3.4710100791360227e-01 +5.9765896942847585e-05 +2.4869024064496215e-01 +8.5599390908216382e+00 +1.5614897141617030e+02 +1.8412109038165640e+04 -4.4541478934688391e+06 
+2.6000000000000010e+00 -3.4710099417144974e-01 +4.3586062947666054e-05 +2.4604324286697474e-01 +8.8814042567389730e+00 +1.7853581543911815e+02 +1.6964588019361094e+04 -4.5029449078021897e+06 
+2.7000000000000011e+00 -3.4710097767137044e-01 +2.7201703449274013e-05 +2.4318850637601985e-01 +9.2161701661931623e+00 +2.0500882403289924e+02 +1.5424877125350284e+04 -4.5716447758889413e+06 
+2.8000000000000012e+00 -3.4710095850527523e-01 +1.0723561787576967e-05 +2.4013703405349685e-01 +9.5620050527613820e+00 +2.3537445574706913e+02 +1.3802628126749612e+04 -4.6592549658392705e+06 
+2.9000000000000012e+00 -3.4710093676515380e-01 -5.7376158558762017e-06 +2.3689983259921055e-01 +9.9166769838942432e+00 +2.6943914367104031e+02 +1.2107493692489146e+04 -4.7647829008414224e+06 
+3.0000000000000013e+00 -3.4710091254308911e-01 -2.2071083344603187e-05 +2.3348791390596907e-01 +1.0277953941453408e+01 +3.0700927252713939e+02 +1.0349126899935891e+04 -4.8872358563013626e+06 
+3.1000000000000014e+00 -3.4710088593127597e-01 -3.8166094578022409e-05 +2.2991229712397415e-01 +1.0643603824758788e+01 +3.4789114178231296e+02 +8.5371811671333598e+03 -5.0256207882343186e+06 
+3.2000000000000015e+00 -3.4710085702200827e-01 -5.3911902387042706e-05 +2.2618400645664538e-01 +1.1011394404133435e+01 +3.9189101287166227e+02 +6.6813105288949600e+03 -5.1789445682588033e+06 
+3.3000000000000016e+00 -3.4710082590770625e-01 -6.9197760036410959e-05 +2.2231407445334805e-01 +1.1379093363597171e+01 +4.3881504800553108e+02 +4.7911693560888643e+03 -5.3462136947801057e+06 
+3.4000000000000017e+00 -3.4710079268092908e-01 -8.3912920386261717e-05 +2.1831354299472644e-01 +1.1744468272857885e+01 +4.8846929628916956e+02 +2.8764124875258262e+03 -5.5264342371348478e+06 
+3.5000000000000018e+00 -3.4710075743436763e-01 -9.7946637581473403e-05 +2.1419346211017498e-01 +1.2105286633685314e+01 +5.4065971897603936e+02 +9.4669493927118697e+02 -5.7186119597989954e+06 
+3.6000000000000019e+00 -3.4710072026087058e-01 -1.1118816578932836e-04 +2.0996489292433404e-01 +1.2459315835722791e+01 +5.9519213620878918e+02 -9.8832786116571299e+02 -5.9217520742869414e+06 
+3.7000000000000020e+00 -3.4710068125344018e-01 -1.2352676095623248e-04 +2.0563890662296089e-01 +1.2804323200057921e+01 +6.5187225118465358e+02 -2.9190003379997902e+03 -6.1348593627095185e+06 
+3.8000000000000020e+00 -3.4710064050526429e-01 -1.3485168001281286e-04 +2.0122658816757863e-01 +1.3138075959014495e+01 +7.1050558239265183e+02 -4.8356666969000471e+03 -6.3569378623107392e+06 
+3.9000000000000021e+00 -3.4710059810970195e-01 -1.4505218089108990e-04 +1.9673903403946308e-01 +1.3458341248718083e+01 +7.7089751002704179e+02 -6.7286708975728625e+03 -6.5869910907449042e+06 
+4.0000000000000018e+00 -3.4710055416025254e-01 -1.5401751032590789e-04 +1.9218734519802291e-01 +1.3762883743549649e+01 +8.3285316714583485e+02 -8.5883413465422655e+03 -6.8240209963570470e+06 
+4.1000000000000014e+00 -3.4710050877202336e-01 -1.6167011138626649e-04 +1.8758198235429407e-01 +1.4049773920585357e+01 +8.9616837652254912e+02 -1.0405419902595229e+04 -7.0669348090629121e+06 
+4.2000000000000011e+00 -3.4710046216379786e-01 -1.6807154747827642e-04 +1.8294455846009350e-01 +1.4318764310967717e+01 +9.6042655134497977e+02 -1.2174286577535186e+04 -7.3137615321717728e+06 
+4.3000000000000007e+00 -3.4710041458564422e-01 -1.7332241822915585e-04 +1.7830327542429814e-01 +1.4570047700630553e+01 +1.0251060740605039e+03 -1.3889625723224741e+04 -7.5621726511844564e+06 
+4.4000000000000004e+00 -3.4710036628768026e-01 -1.7752333988333324e-04 +1.7368636167080062e-01 +1.4803814418552086e+01 +1.0896850269723177e+03 -1.5546089898174758e+04 -7.8098400106975334e+06 
+4.5000000000000000e+00 -3.4710031752002318e-01 -1.8077495564678320e-04 +1.6912205995205812e-01 +1.5020255611753718e+01 +1.1536411430923743e+03 -1.7138336190797854e+04 -8.0544337216078537e+06 
+4.5999999999999996e+00 -3.4710026853277071e-01 -1.8317793913144440e-04 +1.6463862634575524e-01 +1.5219563355866809e+01 +1.2164518167228384e+03 -1.8661026858916266e+04 -8.2936221977072926e+06 
+4.6999999999999993e+00 -3.4710021957601006e-01 -1.8483299553134717e-04 +1.6026433226937331e-01 +1.5401930688854060e+01 +1.2775940591936157e+03 -2.0108829497903556e+04 -8.5250719382028468e+06 
+4.7999999999999989e+00 -3.4710017089980150e-01 -1.8584086217969935e-04 +1.5602746340878060e-01 +1.5567551638524163e+01 +1.3365445147772907e+03 -2.1476417205794452e+04 -8.7464476009655334e+06 
+4.8999999999999986e+00 -3.4710012275418844e-01 -1.8630231204834629e-04 +1.5195632221899610e-01 +1.5716621325733197e+01 +1.3927794047239634e+03 -2.2758469157314903e+04 -8.9554117235942557e+06 
+4.9999999999999982e+00 -3.4710007538918769e-01 -1.8631815335379964e-04 +1.4807922741385351e-01 +1.5849335961420856e+01 +1.4457745330751172e+03 -2.3949670580630191e+04 -9.1496247491133064e+06 
+5.0999999999999979e+00 -3.4710002905477610e-01 -1.8598923441593221e-04 +1.4442451360390773e-01 +1.5965892994929813e+01 +1.4950052862333557e+03 -2.5044713614130396e+04 -9.3267450138241220e+06 
+5.1999999999999975e+00 -3.4709998400091685e-01 -1.8541644019938225e-04 +1.4102053542013618e-01 +1.6066491017178414e+01 +1.5399465489522092e+03 -2.6038296724163367e+04 -9.4844283429455198e+06 
+5.2999999999999972e+00 -3.4709994047751591e-01 -1.8470069841734760e-04 +1.3789566336809692e-01 +1.6151329944195144e+01 +1.5800727759843321e+03 -2.6925125761235835e+04 -9.6203283801732864e+06 
+5.3999999999999968e+00 -3.4709989873445174e-01 -1.8394297885917843e-04 +1.3507828814050096e-01 +1.6220611006333577e+01 +1.6148579064549408e+03 -2.7699913895590533e+04 -9.7320961807141956e+06 
+5.4999999999999964e+00 -3.4709985902155444e-01 -1.8324429619411361e-04 +1.3259681939163129e-01 +1.6274536830667945e+01 +1.6437753789073215e+03 -2.8357382063706795e+04 -9.8173802700542379e+06 
+5.5999999999999961e+00 -3.4709982158860353e-01 -1.8270570991380585e-04 +1.3047968651054034e-01 +1.6313311453136706e+01 +1.6662981103314921e+03 -2.8892259060132303e+04 -9.8738265365034193e+06 
+5.6999999999999957e+00 -3.4709978668533897e-01 -1.8242832889698980e-04 +1.2875534060180166e-01 +1.6337140451157072e+01 +1.6818984554685912e+03 -2.9299282266936985e+04 -9.8990780393003002e+06 
+5.7999999999999954e+00 -3.4709975456143966e-01 -1.8251330896755630e-04 +1.2745225333819973e-01 +1.6346230882504507e+01 +1.6900482188164635e+03 -2.9573197311116339e+04 -9.8907750482434649e+06 
+5.8999999999999950e+00 -3.4709972546652668e-01 -1.8306185918110380e-04 +1.2659891812933188e-01 +1.6340791471579713e+01 +1.6902186284208387e+03 -2.9708759118332520e+04 -9.8465549179203641e+06 
+5.9999999999999947e+00 -3.4709969965059939e-01 -1.8417546143380926e-04 +1.2622390067876202e-01 +1.6321052653540232e+01 +1.6818811606160205e+03 -2.9700866129661048e+04 -9.7640605803767219e+06 
+6.0999999999999943e+00 -3.4709967728617258e-01 -1.8592431951324083e-04 +1.2635311230452723e-01 +1.6287520007571132e+01 +1.6646175466718116e+03 -2.9548213838092368e+04 -9.6416318396141827e+06 
+6.1999999999999940e+00 -3.4709965810796040e-01 -1.8818650965588831e-04 +1.2696395220709505e-01 +1.6238810391562762e+01 +1.6388999280020830e+03 -2.9246754593779406e+04 -9.4816679535304103e+06 
+6.2999999999999936e+00 -3.4709964170879637e-01 -1.9076327734401230e-04 +1.2800968400822177e-01 +1.6172562826606818e+01 +1.6056032087526626e+03 -2.8789980521706333e+04 -9.2882394999734461e+06 
+6.3999999999999932e+00 -3.4709962768128233e-01 -1.9345552523071077e-04 +1.2944343770958472e-01 +1.6086417741405867e+01 +1.5656041524139359e+03 -2.8171431876558741e+04 -9.0654219173471499e+06 
+6.4999999999999929e+00 -3.4709961561836472e-01 -1.9606410969905957e-04 +1.3121835792135791e-01 +1.5978013962357235e+01 +1.5197794448916231e+03 -2.7384638474645926e+04 -8.8172907380077001e+06 
+6.5999999999999925e+00 -3.4709960511332388e-01 -1.9838983525782074e-04 +1.3328760111315602e-01 +1.5844988536283513e+01 +1.4690057554580560e+03 -2.6423118618417320e+04 -8.5479218945724536e+06 
+6.6999999999999922e+00 -3.4709959575980198e-01 -2.0023345300953707e-04 +1.3560433795398605e-01 +1.5684976675134225e+01 +1.4141597004684825e+03 -2.5280378734683909e+04 -8.2613915652660094e+06 
+6.7999999999999918e+00 -3.4709958715180639e-01 -2.0139565974099729e-04 +1.3812175221653725e-01 +1.5495611723593832e+01 +1.3561178734426808e+03 -2.3949913159023050e+04 -7.9617763353193467e+06 
+6.8999999999999915e+00 -3.4709957888372800e-01 -2.0167709239168863e-04 +1.4079304192007625e-01 +1.5274524980934151e+01 +1.2957568313424340e+03 -2.2425203045138180e+04 -7.6531531485359101e+06 
+6.9999999999999911e+00 -3.4709957055034568e-01 -2.0087832979999749e-04 +1.4357141842356283e-01 +1.5019345748628798e+01 +1.2339531217176275e+03 -2.0699716618465951e+04 -7.3395994577489411e+06 
+7.0999999999999908e+00 -3.4709956174685158e-01 -1.9879988546991613e-04 +1.4641010833014825e-01 +1.4727701104738061e+01 +1.1715832540494296e+03 -1.8766907819166863e+04 -7.0251931030301144e+06 
+7.1999999999999904e+00 -3.4709955206884086e-01 -1.9524220931368703e-04 +1.4926235091211659e-01 +1.4397215945498633e+01 +1.1095237571707605e+03 -1.6620216503186268e+04 -6.7140126014866810e+06 
+7.2999999999999901e+00 -3.4709954111235131e-01 -1.9000568313875320e-04 +1.5208140158923672e-01 +1.4025512847882180e+01 +1.0486511236753122e+03 -1.4253067618695170e+04 -6.4101369074715516e+06 
+7.3999999999999897e+00 -3.4709952847386211e-01 -1.8289061880969831e-04 +1.5482053072458565e-01 +1.3610211997962050e+01 +9.8984183873019356e+02 -1.1658870730843000e+04 -6.1176455591342589e+06 
+7.4999999999999893e+00 -3.4709951375029185e-01 -1.7369725588831304e-04 +1.5743302175809959e-01 +1.3148931116929072e+01 +9.3397242648563326e+02 -8.8310195628548463e+03 -5.8406189217829350e+06 
+7.5999999999999890e+00 -3.4709949653904082e-01 -1.6222575890533620e-04 +1.5987217533292256e-01 +1.2639285368906567e+01 +8.8191937937935506e+02 -5.7628914193728988e+03 -5.5831378695191918e+06 
+7.6999999999999886e+00 -3.4709947643798672e-01 -1.4827621487416417e-04 +1.6209130758459525e-01 +1.2078887279871719e+01 +8.3455919861533562e+02 -2.4478466776076016e+03 -5.3492839930601865e+06 
+7.7999999999999883e+00 -3.4709945304548656e-01 -1.3164863323682078e-04 +1.6404374858119225e-01 +1.1465346723086643e+01 +7.9276843431059012e+02 +1.1207713439213924e+03 -5.1431398109179195e+06 
+7.8999999999999879e+00 -3.4709942596040694e-01 -1.1214293838161828e-04 +1.6568284539748460e-01 +1.0796270693747271e+01 +7.5742363314794284e+02 +4.9496377221105340e+03 -4.9687885348061081e+06 
+7.9999999999999876e+00 -3.4709939478157981e-01 -8.9559031482499497e-05 +1.6696182483781882e-01 +1.0069243589015374e+01 +7.2940153653941081e+02 +9.0455736408742268e+03 -4.8303101416003397e+06 
+8.0999999999999872e+00 -3.4709935924106822e-01 -6.3780905758729374e-05 +1.6783411026907069e-01 +9.2829956101575188e+00 +7.0955048795593473e+02 +1.3411239917435762e+04 -4.7315542076388188e+06 
+8.1999999999999869e+00 -3.4709931951614642e-01 -3.5061886525244547e-05 +1.6829875579886494e-01 +8.4433940428379000e+00 +6.9785985694174099e+02 +1.8016457592082454e+04 -4.6723527500088792e+06 
+8.2999999999999865e+00 -3.4709927588079798e-01 -3.8048846213553593e-06 +1.6838287197980661e-01 +7.5595685778187534e+00 +6.9375874127294787e+02 +2.2815105414295187e+04 -4.6498921678610090e+06 
+8.3999999999999861e+00 -3.4709922860960635e-01 +2.9585049363187473e-05 +1.6811401835900946e-01 +6.6407102544688374e+00 +6.9666520962913341e+02 +2.7760721536497491e+04 -4.6613010937177008e+06 
+8.4999999999999858e+00 -3.4709917797606055e-01 +6.4702824825164920e-05 +1.6751964918325349e-01 +5.6960119747873055e+00 +7.0599897275724209e+02 +3.2806830049742697e+04 -4.7037147539888509e+06 
+8.5999999999999854e+00 -3.4709912425249445e-01 +1.0114330707538753e-04 +1.6662710750667695e-01 +4.7346686526087050e+00 +7.2118147911823610e+02 +3.7906939986277699e+04 -4.7742753724379465e+06 
+8.6999999999999851e+00 -3.4709906771008209e-01 +1.3850131995294957e-04 +1.6546362520511576e-01 +3.7658771545638774e+00 +7.4163590670485075e+02 +4.3014545565987508e+04 -4.8701321029773345e+06 
+8.7999999999999847e+00 -3.4709900861875742e-01 +1.7637164011656764e-04 +1.6405631455184144e-01 +2.7988364935971166e+00 +7.6678730647460532e+02 +4.8083124954971179e+04 -4.9884416577332690e+06 
+8.8999999999999844e+00 -3.4709894724721035e-01 +2.1434900079849627e-04 +1.6243216842329519e-01 +1.8427477452608485e+00 +7.9606259066764824e+02 +5.3066140626291497e+04 -5.1263682245656354e+06 
+8.9999999999999840e+00 -3.4709888386285126e-01 +2.5202808583564253e-04 +1.6061805744196050e-01 +9.0681424015229528e-01 +8.2889057106310918e+02 +5.7917038150341672e+04 -5.2810835991018387e+06 
+9.0999999999999837e+00 -3.4709881873175352e-01 +2.8900353245051751e-04 +1.5864072356622341e-01 +2.4151264399673676e-04 +8.6470207139906881e+02 +6.2589246358535835e+04 -5.4497676842976455e+06 
+9.1999999999999833e+00 -3.4709875211862984e-01 +3.2486992750457980e-04 +1.5652677859342309e-01 -8.6776257130992063e-01 +9.0292994128735756e+02 +6.7036176505147334e+04 -5.6296085118781049e+06 
+9.2999999999999829e+00 -3.4709868428680080e-01 +3.5922180857326066e-04 +1.5430270102891611e-01 -1.6879878175392768e+00 +9.4300910582718109e+02 +7.1211222157532349e+04 -5.8178024435801702e+06 
+9.3999999999999826e+00 -3.4709861549815291e-01 +3.9165365971922733e-04 +1.5199483223558075e-01 -2.4512215582364427e+00 +9.8437662540182112e+02 +7.5067758247157253e+04 -6.0115544123715656e+06 
+9.4999999999999822e+00 -3.4709854601308532e-01 +4.2175991433687630e-04 +1.4962937087823575e-01 -3.1482487116771152e+00 +1.0264717881126560e+03 +7.8559141300570438e+04 -6.2080783174585113e+06 
+9.5999999999999819e+00 -3.4709847609051292e-01 +4.4913495134918054e-04 +1.4723237427241312e-01 -3.7698516463839780e+00 +1.0687360745117135e+03 +8.1638708535384241e+04 -6.4045968261164259e+06 
+9.6999999999999815e+00 -3.4709840598778846e-01 +4.7337309452275699e-04 +1.4482975009630408e-01 -4.3068101394668830e+00 +1.1106133000755096e+03 +8.4259777509770836e+04 -6.5983420004970161e+06 
+9.7999999999999812e+00 -3.4709833596068745e-01 +4.9406861341145950e-04 +1.4244725530717217e-01 -4.7499013762541313e+00 +1.1515496257714033e+03 +8.6375645993390688e+04 -6.7865553145661522e+06 
+9.8999999999999808e+00 -3.4709826626337947e-01 +5.1081571907754324e-04 +1.4011049382892590e-01 -5.0898998067823120e+00 +1.1909935898096710e+03 +8.7939591036192578e+04 -6.9664877654021699e+06 
+9.9999999999999805e+00 -3.4709819714806539e-01 +5.2321029212848706e-04 +1.3784514786636173e-01 -5.3176398329399017e+00 +1.2283883786195572e+03 +8.8905258534451466e+04 -7.1353537315986697e+06 
+1.0099999999999980e+01 -3.4709812875485496e-01 +5.3096313466641882e-04 +1.3567894907039435e-01 -5.4267984172091346e+00 +1.2630653679757206e+03 +8.9241302152028918e+04 -7.2896842816954870e+06 
