# multipoles
# s[mm] polynom_b[n=0][T/m^n] polynom_b[n=1][T/m^n] polynom_b[n=2][T/m^n] polynom_b[n=3][T/m^n] polynom_b[n=4][T/m^n] polynom_b[n=5][T/m^n] polynom_b[n=6][T/m^n] 
+0.0000000000000000e+00 -4.3347908623739279e-01 +6.4895972240588407e-03 +5.9514920524840054e-01 -1.1641101447282024e+01 -6.9915066803576137e+03 +1.8158320400006784e+05 +3.6202127690626040e+07 
+1.0000000000000001e-01 -4.3347923296918184e-01 +6.4896008627999017e-03 +5.9787813732243511e-01 -1.1589210608307170e+01 -7.0199372456295987e+03 +1.8127250116973673e+05 +3.6313950069068193e+07 
+2.0000000000000001e-01 -4.3347937775098982e-01 +6.4897067337821622e-03 +6.0026393863461658e-01 -1.1538195051975654e+01 -7.0417750222886170e+03 +1.8096168914480665e+05 +3.6395618653278105e+07 
+3.0000000000000004e-01 -4.3347952057156480e-01 +6.4899092565328907e-03 +6.0232531158764102e-01 -1.1488389777598286e+01 -7.0573917701557957e+03 +1.8065214280006458e+05 +3.6448798032239117e+07 
+4.0000000000000002e-01 -4.3347966141970273e-01 +6.4902028563962478e-03 +6.0408096577312687e-01 -1.1440129971657360e+01 -7.0671594072478911e+03 +1.8034523789498184e+05 +3.6475153656447202e+07 
+5.0000000000000000e-01 -4.3347980028421923e-01 +6.4905819646844274e-03 +6.0554961422262354e-01 -1.1393751003281215e+01 -7.0714499320082405e+03 +1.8004235105527539e+05 +3.6476351442839593e+07 
+5.9999999999999998e-01 -4.3347993715394845e-01 +6.4910410172677284e-03 +6.0674997292996968e-01 -1.1349588360435543e+01 -7.0706354066479435e+03 +1.7974485936451473e+05 +3.6454057665026307e+07 
+6.9999999999999996e-01 -4.3348007201772648e-01 +6.4915744533432292e-03 +6.0770075887826991e-01 -1.1307977602308735e+01 -7.0650879141077121e+03 +1.7945414008983041e+05 +3.6409938723185122e+07 
+7.9999999999999993e-01 -4.3348020486441258e-01 +6.4921767107301888e-03 +6.0842069228637785e-01 -1.1269254202783801e+01 -7.0551795940610100e+03 +1.7917156974530217e+05 +3.6345661288116343e+07 
+8.9999999999999991e-01 -4.3348033568285366e-01 +6.4928422285355026e-03 +6.0892849232098778e-01 -1.1233753615571818e+01 -7.0412825554542169e+03 +1.7889852446659672e+05 +3.6262891859078236e+07 
+9.9999999999999989e-01 -4.3348046446190369e-01 +6.4935654426594106e-03 +6.0924287905480257e-01 -1.1201811124120601e+01 -7.0237689063944035e+03 +1.7863637911652692e+05 +3.6163296876190431e+07 
+1.0999999999999999e+00 -4.3348059119038757e-01 +6.4943407861641324e-03 +6.0938256887979081e-01 -1.1173761839347600e+01 -7.0030106607704793e+03 +1.7838650726277221e+05 +3.6048542251715660e+07 
+1.2000000000000000e+00 -4.3348071585713188e-01 +6.4951626840083218e-03 +6.0936627841347224e-01 -1.1149940524449434e+01 -6.9793798072733061e+03 +1.7815028013511613e+05 +3.5920293671625629e+07 
+1.3000000000000000e+00 -4.3348083845091490e-01 +6.4960255570977688e-03 +6.0921271764657092e-01 -1.1130681703600438e+01 -6.9532481701604938e+03 +1.7792906725624052e+05 +3.5780215902699061e+07 
+1.4000000000000001e+00 -4.3348095896050121e-01 +6.4969238161403306e-03 +6.0894059459781080e-01 -1.1116319462470676e+01 -6.9249874942231463e+03 +1.7772423525808429e+05 +3.5629973174622945e+07 
+1.5000000000000002e+00 -4.3348107737461683e-01 +6.4978518613998653e-03 +6.0856861178157617e-01 -1.1107187427528418e+01 -6.8949693696326658e+03 +1.7753714775427629e+05 +3.5471228792408921e+07 
+1.6000000000000003e+00 -4.3348119368194188e-01 +6.4988040809025845e-03 +6.0811546504568814e-01 -1.1103618693436211e+01 -6.8635652024307974e+03 +1.7736916489282518e+05 +3.5305644966551036e+07 
+1.7000000000000004e+00 -4.3348130787109845e-01 +6.4997748505219539e-03 +6.0759984207541795e-01 -1.1105945816226539e+01 -6.8311461817697800e+03 +1.7722164331746890e+05 +3.5134882636732541e+07 
+1.8000000000000005e+00 -4.3348141993067785e-01 +6.5007585287092193e-03 +6.0704042576571871e-01 -1.1114500636608858e+01 -6.7980833370447381e+03 +1.7709593511339786e+05 +3.4960601711322382e+07 
+1.9000000000000006e+00 -4.3348152984917782e-01 +6.5017494602821633e-03 +6.0645588577338494e-01 -1.1129614378730736e+01 -6.7647473695154713e+03 +1.7699338837101564e+05 +3.4784460241510153e+07 
+2.0000000000000004e+00 -4.3348163761499703e-01 +6.5027419415561701e-03 +6.0586487419532398e-01 -1.1151616615576728e+01 -6.7315085259293119e+03 +1.7691534358965405e+05 +3.4608113898979887e+07 
+2.1000000000000005e+00 -4.3348174320268867e-01 +6.5037253597618593e-03 +6.0528206517322158e-01 -1.1180599539313402e+01 -6.6986545326888308e+03 +1.7686228836225119e+05 +3.4432855979932934e+07 
+2.2000000000000006e+00 -4.3348184659013367e-01 +6.5046811637153078e-03 +6.0471506690722687e-01 -1.1215916956984339e+01 -6.6663486278438540e+03 +1.7683161355834053e+05 +3.4259492806566782e+07 
+2.3000000000000007e+00 -4.3348194776883692e-01 +6.5055894133697516e-03 +6.0417158616192634e-01 -1.1256707604952695e+01 -6.6347685286682736e+03 +1.7681966892863787e+05 +3.4088928015900634e+07 
+2.4000000000000008e+00 -4.3348204673030266e-01 +6.5064301527662308e-03 +6.0365933197835242e-01 -1.1302109405300685e+01 -6.6040920418427804e+03 +1.7682280053678303e+05 +3.3922065639564291e+07 
+2.5000000000000009e+00 -4.3348214346598152e-01 +6.5071834263147688e-03 +6.0318600636520625e-01 -1.1351260192075262e+01 -6.5744968330383062e+03 +1.7683735395930649e+05 +3.3759808992542177e+07 
+2.6000000000000010e+00 -4.3348223796730379e-01 +6.5078292819670015e-03 +6.0275930905880681e-01 -1.1403297795458700e+01 -6.5461605238301036e+03 +1.7685967477573894e+05 +3.3603061150867067e+07 
+2.7000000000000011e+00 -4.3348233022562876e-01 +6.5083477716023500e-03 +6.0238693047361136e-01 -1.1457360064071523e+01 -6.5192605577781169e+03 +1.7688610874860760e+05 +3.3452724320692379e+07 
+2.8000000000000012e+00 -4.3348242023229755e-01 +6.5087189527923348e-03 +6.0207655903408230e-01 -1.1512584915275992e+01 -6.4939743462253473e+03 +1.7691300213293690e+05 +3.3309700545820795e+07 
+2.9000000000000012e+00 -4.3348250797858096e-01 +6.5089228876088600e-03 +6.0183587422220952e-01 -1.1568110303193006e+01 -6.4704791370556668e+03 +1.7693670152504891e+05 +3.3174891091234371e+07 
+3.0000000000000013e+00 -4.3348259345572965e-01 +6.5089396463253440e-03 +6.0167255319651258e-01 -1.1623074328562170e+01 -6.4489521458910858e+03 +1.7695355452499448e+05 +3.3049197080608409e+07 
+3.1000000000000014e+00 -4.3348267665492773e-01 +6.5087493060601116e-03 +6.0159426472813349e-01 -1.1676615202731522e+01 -6.4295704420477441e+03 +1.7695990955847679e+05 +3.2933518960596338e+07 
+3.2000000000000015e+00 -4.3348275756732635e-01 +6.5083319536863634e-03 +6.0160867364291526e-01 -1.1727871335702348e+01 -6.4125110379475582e+03 +1.7695211641958458e+05 +3.2828756939416241e+07 
+3.3000000000000016e+00 -4.3348283618401445e-01 +6.5076676851789595e-03 +6.0172343707712106e-01 -1.1775981317359728e+01 -6.3979508199064958e+03 +1.7692652618545436e+05 +3.2735810665850539e+07 
+3.4000000000000017e+00 -4.3348291249603899e-01 +6.5067366070309801e-03 +6.0194620707216973e-01 -1.1820083961560567e+01 -6.3860666026115741e+03 +1.7687949150113086e+05 +3.2655579503310136e+07 
+3.5000000000000018e+00 -4.3348298649439054e-01 +6.5055188371560407e-03 +6.0228462898736557e-01 -1.1859318336406570e+01 -6.3770351011924176e+03 +1.7680736678745603e+05 +3.2588962403705537e+07 
+3.6000000000000019e+00 -4.3348305817001886e-01 +6.5039945072914353e-03 +6.0274634299911478e-01 -1.1892823833881764e+01 -6.3710329616109530e+03 +1.7670650866576261e+05 +3.2536858059464261e+07 
+3.7000000000000020e+00 -4.3348312751380819e-01 +6.5021437607854608e-03 +6.0333898169046063e-01 -1.1919740110091569e+01 -6.3682367216214552e+03 +1.7657327564690192e+05 +3.2500164737295676e+07 
+3.8000000000000020e+00 -4.3348319451659445e-01 +6.4999467568423470e-03 +6.0407017144910680e-01 -1.1939207213368471e+01 -6.3688228362741720e+03 +1.7640402890647633e+05 +3.2479780398591440e+07 
+3.9000000000000021e+00 -4.3348325916916219e-01 +6.4973836701289148e-03 +6.0494753295555692e-01 -1.1950365565742244e+01 -6.3729676945585961e+03 +1.7619513218149249e+05 +3.2476602798317514e+07 
+4.0000000000000018e+00 -4.3348332146193524e-01 +6.4944345330197484e-03 +6.0597862189435570e-01 -1.1952351078349205e+01 -6.3808463567190556e+03 +1.7594291351465075e+05 +3.2491522309939433e+07 
+4.1000000000000014e+00 -4.3348338134889103e-01 +6.4910760651342558e-03 +6.0716459550941371e-01 -1.1944292887703430e+01 -6.3925191196085807e+03 +1.7564342333130018e+05 +3.2524885138406213e+07 
+4.2000000000000011e+00 -4.3348343871240153e-01 +6.4873070246433311e-03 +6.0849061740282229e-01 -1.1926037221140982e+01 -6.4077509207880057e+03 +1.7529573353286812e+05 +3.2575713962576356e+07 
+4.3000000000000007e+00 -4.3348349343028142e-01 +6.4831387764591976e-03 +6.0993880585875515e-01 -1.1897745451545404e+01 -6.4262449421559995e+03 +1.7490001979886199e+05 +3.2642782316312276e+07 
+4.4000000000000004e+00 -4.3348354538054118e-01 +6.4785826926826240e-03 +6.1149130283385045e-01 -1.1859577896579490e+01 -6.4477049220524432e+03 +1.7445643489013863e+05 +3.2724868008118428e+07 
+4.5000000000000000e+00 -4.3348359444125495e-01 +6.4736501781218264e-03 +6.1313026079267163e-01 -1.1811695624939375e+01 -6.4718348489086020e+03 +1.7396513483929084e+05 +3.2820750292423617e+07 
+4.5999999999999996e+00 -4.3348364049052673e-01 +6.4683526693862150e-03 +6.1483783829346550e-01 -1.1754260426182649e+01 -6.4983388809228572e+03 +1.7342627872284077e+05 +3.2929209509224832e+07 
+4.6999999999999993e+00 -4.3348368340652932e-01 +6.4627016399520969e-03 +6.1659620502400536e-01 -1.1687434947515381e+01 -6.5269214429965878e+03 +1.7284002937508060e+05 +3.3049027553721506e+07 
+4.7999999999999989e+00 -4.3348372306748556e-01 +6.4567085982678227e-03 +6.1838753947959046e-01 -1.1611382636197547e+01 -6.5572871856794936e+03 +1.7220655300502852e+05 +3.3178987698870070e+07 
+4.8999999999999986e+00 -4.3348375935167766e-01 +6.4503850899755941e-03 +6.2019403058337308e-01 -1.1526267802876278e+01 -6.5891410208571579e+03 +1.7152601951335729e+05 +3.3317874785963066e+07 
+4.9999999999999982e+00 -4.3348379213747418e-01 +6.4437427015478395e-03 +6.2199788087721797e-01 -1.1432255718842987e+01 -6.6221881823122330e+03 +1.7079860298505073e+05 +3.3464475518776990e+07 
+5.0999999999999979e+00 -4.3348382130329521e-01 +6.4367930593244790e-03 +6.2378130239579832e-01 -1.1329512584235747e+01 -6.6561341515764188e+03 +1.7002448145019449e+05 +3.3617578132944085e+07 
+5.1999999999999975e+00 -4.3348384672764878e-01 +6.4295478324004991e-03 +6.2552652127000508e-01 -1.1218205603880481e+01 -6.6906847485534036e+03 +1.6920383725591778e+05 +3.3775972842113048e+07 
+5.2999999999999972e+00 -4.3348386828912300e-01 +6.4220187326853194e-03 +6.2721577703395215e-01 -1.1098502991055527e+01 -6.7255461198779922e+03 +1.6833685704593410e+05 +3.3938451794441961e+07 
+5.3999999999999968e+00 -4.3348388586639353e-01 +6.4142175203393149e-03 +6.2883132351418258e-01 -1.0970574113299209e+01 -6.7604247598855927e+03 +1.6742373252499613e+05 +3.4103809191670522e+07 
+5.4999999999999964e+00 -4.3348389933823217e-01 +6.4061559993633891e-03 +6.3035543012527073e-01 -1.0834589362665126e+01 -6.7950275372820452e+03 +1.6646465966181905e+05 +3.4270841429355256e+07 
+5.5999999999999961e+00 -4.3348390858349534e-01 +6.3978460249541364e-03 +6.3177038055599499e-01 -1.0690720368381760e+01 -6.8290616737437858e+03 +1.6545983986383074e+05 +3.4438347013734721e+07 
+5.6999999999999957e+00 -4.3348391348115595e-01 +6.3892995009863784e-03 +6.3305847685434768e-01 -1.0539139910774205e+01 -6.8622348235250583e+03 +1.6440947940556318e+05 +3.4605126951316088e+07 
+5.7999999999999954e+00 -4.3348391391027852e-01 +6.3805283842942578e-03 +6.3420203631647243e-01 -1.0380022047673895e+01 -6.8942550171560451e+03 +1.6331379011239766e+05 +3.4769984500159152e+07 
+5.8999999999999950e+00 -4.3348390975005113e-01 +6.3715446842530533e-03 +6.3518339587911732e-01 -1.0213542096082396e+01 -6.9248307488412966e+03 +1.6217298919774240e+05 +3.4931725600788005e+07 
+5.9999999999999947e+00 -4.3348390088101624e-01 +6.3623610960696908e-03 +6.3598513301016635e-01 -1.0039901782974272e+01 -6.9536765014313842e+03 +1.6098746139990393e+05 +3.5089189204094343e+07 
+6.0999999999999943e+00 -4.3348388727972192e-01 +6.3529893358960079e-03 +6.3659692353130093e-01 -9.8594891668467159e+00 -6.9806426901499462e+03 +1.5975911488829576e+05 +3.5241880692456596e+07 
+6.1999999999999940e+00 -4.3348386918779297e-01 +6.3434275110668195e-03 +6.3702238723556881e-01 -9.6729209413715758e+00 -7.0057527551711837e+03 +1.5849259066946368e+05 +3.5389907669560790e+07 
+6.2999999999999936e+00 -4.3348384688700270e-01 +6.3336821068350566e-03 +6.3726492037682136e-01 -9.4813942426077080e+00 -7.0289662324805113e+03 +1.5719678879246139e+05 +3.5532893957682468e+07 
+6.3999999999999932e+00 -4.3348382065786706e-01 +6.3237605579769341e-03 +6.3732766680658737e-01 -9.2861480672488650e+00 -7.0502354585756548e+03 +1.5588090072948043e+05 +3.5670420173791505e+07 
+6.4999999999999929e+00 -4.3348379078098154e-01 +6.3136702695516566e-03 +6.3721378854522248e-01 -9.0884208587455237e+00 -7.0695131005925641e+03 +1.5455411511415371e+05 +3.5802068211618587e+07 
+6.5999999999999925e+00 -4.3348375753692436e-01 +6.3034186181339571e-03 +6.3692645440227180e-01 -8.8894505599877736e+00 -7.0867519437189039e+03 +1.5322561808424100e+05 +3.5927420236088775e+07 
+6.6999999999999922e+00 -4.3348372120639017e-01 +6.2930129478212500e-03 +6.3646885653378360e-01 -8.6904745147440128e+00 -7.1019051997903243e+03 +1.5190459275447094e+05 +3.6046060113627963e+07 
+6.7999999999999918e+00 -4.3348368207006532e-01 +6.2824605701803466e-03 +6.3584419522953017e-01 -8.4927294868264216e+00 -7.1149262181881586e+03 +1.5060021937718851e+05 +3.6157572033816218e+07 
+6.8999999999999915e+00 -4.3348364040871751e-01 +6.2717687602111827e-03 +6.3505569049321942e-01 -8.2974515558996647e+00 -7.1257687050937438e+03 +1.4932167477081993e+05 +3.6261541532737911e+07 
+6.9999999999999911e+00 -4.3348359650314677e-01 +6.2609447554425662e-03 +6.3410657609931920e-01 -8.1058761127190433e+00 -7.1343866086076296e+03 +1.4807813234035409e+05 +3.6357554932189368e+07 
+7.0999999999999908e+00 -4.3348355063421795e-01 +6.2499957556355285e-03 +6.3300010403028761e-01 -7.9192378656087881e+00 -7.1407342022111716e+03 +1.4687876215475870e+05 +3.6445199721824430e+07 
+7.1999999999999904e+00 -4.3348350308283906e-01 +6.2389289186129673e-03 +6.3173954184746794e-01 -7.7387707390167906e+00 -7.1447660313721462e+03 +1.4573273040569905e+05 +3.6524064283949748e+07 
+7.2999999999999901e+00 -4.3348345412997347e-01 +6.2277513590182432e-03 +6.3032817461716550e-01 -7.5657078551729837e+00 -7.1464369512209159e+03 +1.4464919934593522e+05 +3.6593738065235108e+07 
+7.3999999999999897e+00 -4.3348340405663810e-01 +6.2164701462170732e-03 +6.2876930515921481e-01 -7.4012814898890582e+00 -7.1457021293852495e+03 +1.4363732707082824e+05 +3.6653811572028212e+07 
+7.4999999999999893e+00 -4.3348335314390846e-01 +6.2050923034706607e-03 +6.2706625444783193e-01 -7.2467230635276652e+00 -7.1425170500851455e+03 +1.4270626750681738e+05 +3.6703876369134665e+07 
+7.5999999999999890e+00 -4.3348330167292154e-01 +6.1936248056256088e-03 +6.2522236283650146e-01 -7.1032630959810232e+00 -7.1368375392259932e+03 +1.4186517019879809e+05 +3.6743525192524776e+07 
+7.6999999999999886e+00 -4.3348324992486797e-01 +6.1820745765452595e-03 +6.2324098885472179e-01 -6.9721311489963886e+00 -7.1286197375082111e+03 +1.4112318002550214e+05 +3.6772351799415201e+07 
+7.7999999999999883e+00 -4.3348319818098735e-01 +6.1704484864927422e-03 +6.2112550929074550e-01 -6.8545557625445905e+00 -7.1178201021742780e+03 +1.4048943685478668e+05 +3.6789950965129867e+07 
+7.8999999999999879e+00 -4.3348314672260119e-01 +6.1587533529603713e-03 +6.1887932341395291e-01 -6.7517645050580812e+00 -7.1043954856929286e+03 +1.3997307590355739e+05 +3.6795918840765655e+07 
+7.9999999999999876e+00 -4.3348309583259997e-01 +6.1469958483090165e-03 +6.1650612167871155e-01 -6.6649392098404387e+00 -7.0883035510796662e+03 +1.3958287196164500e+05 +3.6789839453982294e+07 
+8.0999999999999872e+00 -4.3348304580913383e-01 +6.1352082403219217e-03 +6.1402061338157043e-01 -6.5950649584489831e+00 -7.0696476751766859e+03 +1.3932444185680730e+05 +3.6771755629873939e+07 
+8.1999999999999869e+00 -4.3348299685469338e-01 +6.1234440845432401e-03 +6.1144819128192329e-01 -6.5424962188985551e+00 -7.0487629781132373e+03 +1.3919746767696954e+05 +3.6742777886697449e+07 
+8.2999999999999865e+00 -4.3348294914310193e-01 +6.1117328611897496e-03 +6.0881739657610945e-01 -6.5064565615685757e+00 -7.0261255296706931e+03 +1.3919480353241836e+05 +3.6704856455156118e+07 
+8.3999999999999861e+00 -4.3348290284951108e-01 +6.1001018845741788e-03 +6.0615715777778589e-01 -6.4860767155051962e+00 -7.0022243501450866e+03 +1.3930876317267033e+05 +3.6660014551953785e+07 
+8.4999999999999858e+00 -4.3348285814905524e-01 +6.0885783581542579e-03 +6.0349638036018882e-01 -6.4804841531530686e+00 -6.9775479400677623e+03 +1.3953164308237252e+05 +3.6610272861232616e+07 
+8.5999999999999854e+00 -4.3348281521683246e-01 +6.0771893725244750e-03 +6.0086394373350915e-01 -6.4888030238979955e+00 -6.9525842221601824e+03 +1.3985572212609096e+05 +3.6557649265979551e+07 
+8.6999999999999851e+00 -4.3348277422793718e-01 +6.0659618995732916e-03 +5.9828870440382498e-01 -6.5101539847336918e+00 -6.9278205961988742e+03 +1.4027326062536467e+05 +3.6504159098644130e+07 
+8.7999999999999847e+00 -4.3348273535744025e-01 +6.0549227929487005e-03 +5.9579949301482260e-01 -6.5436542141217728e+00 -6.9037438822954273e+03 +1.4077650049522467e+05 +3.6451814877528138e+07 
+8.8999999999999844e+00 -4.3348269878038093e-01 +6.0440987822298177e-03 +5.9342511233276163e-01 -6.5884172302796689e+00 -6.8808402784940399e+03 +1.4135766421120233e+05 +3.6402626101891600e+07 
+8.9999999999999840e+00 -4.3348266467177232e-01 +6.0335164719887927e-03 +5.9119433750748307e-01 -6.6435528755351809e+00 -6.8595953639973422e+03 +1.4200895480723010e+05 +3.6358599267100304e+07 
+9.0999999999999837e+00 -4.3348263320660951e-01 +6.0232023358339866e-03 +5.8913591599985526e-01 -6.7081671295228977e+00 -6.8404940939566050e+03 +1.4272255480895692e+05 +3.6321737837092757e+07 
+9.1999999999999833e+00 -4.3348260455985438e-01 +6.0131827165284006e-03 +5.8727856541087442e-01 -6.7813621119673000e+00 -6.8240207576132034e+03 +1.4349062630270940e+05 +3.6294042049474947e+07 
+9.2999999999999829e+00 -4.3348257890642611e-01 +6.0034838203303006e-03 +5.8565097111251618e-01 -6.8622359226495888e+00 -6.8106589288150899e+03 +1.4430531007749756e+05 +3.6277508676460937e+07 
+9.3999999999999826e+00 -4.3348255642122907e-01 +5.9941317156151754e-03 +5.8428178913818574e-01 -6.9498825895455765e+00 -6.8008915178467041e+03 +1.4515872534291772e+05 +3.6274131266492397e+07 
+9.4999999999999822e+00 -4.3348253727911729e-01 +5.9851523275756139e-03 +5.8319964130367064e-01 -7.0433919194391850e+00 -6.7952006784066507e+03 +1.4604296893288242e+05 +3.6285899709899567e+07 
+9.5999999999999819e+00 -4.3348252165491286e-01 +5.9765714378928669e-03 +5.8243311641952944e-01 -7.1418494813042654e+00 -6.7940678263035879e+03 +1.4695011524239214e+05 +3.6314800321517140e+07 
+9.6999999999999815e+00 -4.3348250972339158e-01 +5.9684146792737492e-03 +5.8201076795536100e-01 -7.2443364482459760e+00 -6.7979735928514465e+03 +1.4787221536884454e+05 +3.6362815620233454e+07 
+9.7999999999999812e+00 -4.3348250165930413e-01 +5.9607075342055470e-03 +5.8196111584242316e-01 -7.3499295535614868e+00 -6.8073978556249785e+03 +1.4880129688964039e+05 +3.6431924469903246e+07 
+9.8999999999999808e+00 -4.3348249763733970e-01 +5.9534753298405279e-03 +5.8231264111401115e-01 -7.4577009521752533e+00 -6.8228196343238687e+03 +1.4972936313922654e+05 +3.6524101587975398e+07 
+9.9999999999999805e+00 -4.3348249782261167e-01 +5.9467396240384177e-03 +5.8309197049718975e-01 -7.5666650282124097e+00 -6.8446841021137552e+03 +1.5064832855654208e+05 +3.6641179485621840e+07 
+1.0099999999999980e+01 -4.3348250222912404e-01 +5.9404666088329347e-03 +5.8430007363055503e-01 -7.6751212064270522e+00 -6.8730005261722545e+03 +1.5154858857288418e+05 +3.6783164894652262e+07 
