# field on trajectory
# s[mm] rx[mm] ry[mm] rz[mm] bx[T] by[T] bz[T]
0.0000000000000000e+00 -4.6467000000000001e+00 +0.0000000000000000e+00 +0.0000000000000000e+00 -2.8322119851027106e-02 +5.1995157433059702e-01 -3.6810192349902853e-03
1.0000000000000001e-01 -4.6466956873051455e+00 +0.0000000000000000e+00 +9.9999999876004428e-02 -2.8322251383372340e-02 +5.1995147322343349e-01 -3.6809873848168201e-03
2.0000000000000001e-01 -4.6466827492217506e+00 +0.0000000000000000e+00 +1.9999999900803553e-01 -2.8322366614213876e-02 +5.1995136613017068e-01 -3.6809554341434157e-03
3.0000000000000004e-01 -4.6466611857516860e+00 +0.0000000000000000e+00 +2.9999999665212040e-01 -2.8322466229937039e-02 +5.1995125374999451e-01 -3.6809234410817016e-03
4.0000000000000002e-01 -4.6466309968969757e+00 +0.0000000000000000e+00 +3.9999999206428671e-01 -2.8322550916982978e-02 +5.1995113678209792e-01 -3.6808914637274049e-03
5.0000000000000000e-01 -4.6465921826597842e+00 +0.0000000000000000e+00 +4.9999998450056254e-01 -2.8322621361846288e-02 +5.1995101592570825e-01 -3.6808595601630426e-03
5.9999999999999998e-01 -4.6465447430424041e+00 +0.0000000000000000e+00 +5.9999997321697662e-01 -2.8322678251072601e-02 +5.1995089188011345e-01 -3.6808277884605770e-03
6.9999999999999996e-01 -4.6464886780472447e+00 +0.0000000000000000e+00 +6.9999995746955812e-01 -2.8322722271256213e-02 +5.1995076534468998e-01 -3.6807962066841039e-03
7.9999999999999993e-01 -4.6464239876768216e+00 +0.0000000000000000e+00 +7.9999993651433698e-01 -2.8322754109037597e-02 +5.1995063701892863e-01 -3.6807648728925126e-03
8.9999999999999991e-01 -4.6463506719337433e+00 +0.0000000000000000e+00 +8.9999990960734366e-01 -2.8322774451101030e-02 +5.1995050760246142e-01 -3.6807338451421570e-03
9.9999999999999989e-01 -4.6462687308207018e+00 +0.0000000000000000e+00 +9.9999987600460916e-01 -2.8322783984172224e-02 +5.1995037779508935e-01 -3.6807031814895452e-03
1.0999999999999999e+00 -4.6461781643404594e+00 +0.0000000000000000e+00 +1.0999998349621651e+00 -2.8322783395015868e-02 +5.1995024829680803e-01 -3.6806729399939966e-03
1.2000000000000000e+00 -4.6460789724958360e+00 +0.0000000000000000e+00 +1.1999997857360440e+00 -2.8322773370433221e-02 +5.1995011980783590e-01 -3.6806431787203258e-03
1.3000000000000000e+00 -4.6459711552897005e+00 +0.0000000000000000e+00 +1.2999997275822788e+00 -2.8322754597259713e-02 +5.1994999302863920e-01 -3.6806139557415099e-03
1.4000000000000001e+00 -4.6458547127249581e+00 +0.0000000000000000e+00 +1.3999996597569027e+00 -2.8322727762362523e-02 +5.1994986865996018e-01 -3.6805853291413670e-03
1.5000000000000002e+00 -4.6457296448045362e+00 +0.0000000000000000e+00 +1.4999995815159497e+00 -2.8322693552638140e-02 +5.1994974740284372e-01 -3.6805573570172345e-03
1.6000000000000003e+00 -4.6455959515313756e+00 +0.0000000000000000e+00 +1.5999994921154546e+00 -2.8322652655009987e-02 +5.1994962995866367e-01 -3.6805300974826370e-03
1.7000000000000004e+00 -4.6454536329084188e+00 +0.0000000000000000e+00 +1.6999993908114523e+00 -2.8322605756425930e-02 +5.1994951702914971e-01 -3.6805036086699698e-03
1.8000000000000005e+00 -4.6453026889385978e+00 +0.0000000000000000e+00 +1.7999992768599786e+00 -2.8322553543855915e-02 +5.1994940931641420e-01 -3.6804779487331681e-03
1.9000000000000006e+00 -4.6451431196248203e+00 +0.0000000000000000e+00 +1.8999991495170694e+00 -2.8322496704289473e-02 +5.1994930752297897e-01 -3.6804531758503930e-03
2.0000000000000004e+00 -4.6449749249699614e+00 +0.0000000000000000e+00 +1.9999990080387611e+00 -2.8322435924733311e-02 +5.1994921235180191e-01 -3.6804293482266986e-03
2.1000000000000005e+00 -4.6447981049768501e+00 +0.0000000000000000e+00 +2.0999988516810904e+00 -2.8322371964708808e-02 +5.1994912435035467e-01 -3.6804064849560048e-03
2.2000000000000006e+00 -4.6446126596482618e+00 +0.0000000000000000e+00 +2.1999986797000943e+00 -2.8322305873728280e-02 +5.1994904344258674e-01 -3.6803844485810075e-03
2.3000000000000007e+00 -4.6444185889869196e+00 +0.0000000000000000e+00 +2.2999984913518103e+00 -2.8322238773731540e-02 +5.1994896939643687e-01 -3.6803630624898287e-03
2.4000000000000008e+00 -4.6442158929954953e+00 +0.0000000000000000e+00 +2.3999982858922762e+00 -2.8322171786561930e-02 +5.1994890197970556e-01 -3.6803421500524436e-03
2.5000000000000009e+00 -4.6440045716766152e+00 +0.0000000000000000e+00 +2.4999980625775291e+00 -2.8322106033953492e-02 +5.1994884096001159e-01 -3.6803215346177640e-03
2.6000000000000010e+00 -4.6437846250328647e+00 +0.0000000000000000e+00 +2.5999978206636074e+00 -2.8322042637518134e-02 +5.1994878610475381e-01 -3.6803010395107367e-03
2.7000000000000011e+00 -4.6435560530667903e+00 +0.0000000000000000e+00 +2.6999975594065493e+00 -2.8321982718732888e-02 +5.1994873718106649e-01 -3.6802804880294243e-03
2.8000000000000012e+00 -4.6433188557809038e+00 +0.0000000000000000e+00 +2.7999972780623930e+00 -2.8321927398927041e-02 +5.1994869395577992e-01 -3.6802597034421101e-03
2.9000000000000012e+00 -4.6430730331776875e+00 +0.0000000000000000e+00 +2.8999969758871766e+00 -2.8321877799269354e-02 +5.1994865619537756e-01 -3.6802385089843744e-03
3.0000000000000013e+00 -4.6428185852595973e+00 +0.0000000000000000e+00 +2.9999966521369390e+00 -2.8321835040755278e-02 +5.1994862366595651e-01 -3.6802167278561873e-03
3.1000000000000014e+00 -4.6425555120290660e+00 +0.0000000000000000e+00 +3.0999963060677187e+00 -2.8321800244194121e-02 +5.1994859613318367e-01 -3.6801941832189993e-03
3.2000000000000015e+00 -4.6422838134885085e+00 +0.0000000000000000e+00 +3.1999959369355540e+00 -2.8321774530196270e-02 +5.1994857336225664e-01 -3.6801706981928277e-03
3.3000000000000016e+00 -4.6420034896403237e+00 +0.0000000000000000e+00 +3.2999955439964839e+00 -2.8321759019160390e-02 +5.1994855511786064e-01 -3.6801460958533379e-03
3.4000000000000017e+00 -4.6417145404869000e+00 +0.0000000000000000e+00 +3.3999951265065476e+00 -2.8321754831260634e-02 +5.1994854116412836e-01 -3.6801201992289357e-03
3.5000000000000018e+00 -4.6414169660306186e+00 +0.0000000000000000e+00 +3.4999946837217837e+00 -2.8321763086433797e-02 +5.1994853126459750e-01 -3.6800928312978425e-03
3.6000000000000019e+00 -4.6411107662738580e+00 +0.0000000000000000e+00 +3.5999942148982309e+00 -2.8321784904366643e-02 +5.1994852518217072e-01 -3.6800638149851882e-03
3.7000000000000020e+00 -4.6407959412189976e+00 +0.0000000000000000e+00 +3.6999937192919283e+00 -2.8321821404482986e-02 +5.1994852267907310e-01 -3.6800329731600844e-03
3.8000000000000020e+00 -4.6404724908684214e+00 +0.0000000000000000e+00 +3.7999931961589151e+00 -2.8321873705930967e-02 +5.1994852351681142e-01 -3.6800001286327079e-03
3.9000000000000021e+00 -4.6401404152245220e+00 +0.0000000000000000e+00 +3.8999926447552298e+00 -2.8321942927570311e-02 +5.1994852745613296e-01 -3.6799651041513823e-03
4.0000000000000018e+00 -4.6397997142897056e+00 +0.0000000000000000e+00 +3.9999920643369120e+00 -2.8322030187959459e-02 +5.1994853425698406e-01 -3.6799277223996479e-03
4.1000000000000014e+00 -4.6394503880663933e+00 +0.0000000000000000e+00 +4.0999914541600004e+00 -2.8322136113197525e-02 +5.1994854366570276e-01 -3.6798878748108121e-03
4.2000000000000011e+00 -4.6390924365570294e+00 +0.0000000000000000e+00 +4.1999908134805342e+00 -2.8322259360179448e-02 +5.1994855537695572e-01 -3.6798457281205592e-03
4.3000000000000007e+00 -4.6387258597640830e+00 +0.0000000000000000e+00 +4.2999901415545523e+00 -2.8322398093569616e-02 +5.1994856907252973e-01 -3.6798015179477462e-03
4.4000000000000004e+00 -4.6383506576900535e+00 +0.0000000000000000e+00 +4.3999894376380944e+00 -2.8322550478241577e-02 +5.1994858443418468e-01 -3.6797554799571051e-03
4.5000000000000000e+00 -4.6379668303374793e+00 +0.0000000000000000e+00 +4.4999887009871999e+00 -2.8322714679296410e-02 +5.1994860114366392e-01 -3.6797078498631143e-03
4.5999999999999996e+00 -4.6375743777089378e+00 +0.0000000000000000e+00 +4.5999879308579077e+00 -2.8322888862081078e-02 +5.1994861888270538e-01 -3.6796588634338714e-03
4.6999999999999993e+00 -4.6371732998070563e+00 +0.0000000000000000e+00 +4.6999871265062572e+00 -2.8323071192206815e-02 +5.1994863733305252e-01 -3.6796087564949591e-03
4.7999999999999989e+00 -4.6367635966345118e+00 +0.0000000000000000e+00 +4.7999862871882879e+00 -2.8323259835567497e-02 +5.1994865617646480e-01 -3.6795577649333094e-03
4.8999999999999986e+00 -4.6363452681940407e+00 +0.0000000000000000e+00 +4.8999854121600404e+00 -2.8323452958358048e-02 +5.1994867509472842e-01 -3.6795061247010645e-03
4.9999999999999982e+00 -4.6359183144884417e+00 +0.0000000000000000e+00 +4.9999845006775541e+00 -2.8323648727092861e-02 +5.1994869376966768e-01 -3.6794540718194358e-03
5.0999999999999979e+00 -4.6354827355205828e+00 +0.0000000000000000e+00 +5.0999835519968695e+00 -2.8323845308624196e-02 +5.1994871188315606e-01 -3.6794018423825618e-03
5.1999999999999975e+00 -4.6350385312934028e+00 +0.0000000000000000e+00 +5.1999825653740261e+00 -2.8324040870160574e-02 +5.1994872911712520e-01 -3.6793496725613514e-03
5.2999999999999972e+00 -4.6345857018099226e+00 +0.0000000000000000e+00 +5.2999815400650654e+00 -2.8324233579285291e-02 +5.1994874515357847e-01 -3.6792977986073398e-03
5.3999999999999968e+00 -4.6341242470732444e+00 +0.0000000000000000e+00 +5.3999804753260285e+00 -2.8324421603974772e-02 +5.1994875967460008e-01 -3.6792464568565280e-03
5.4999999999999964e+00 -4.6336541670865614e+00 +0.0000000000000000e+00 +5.4999793704129560e+00 -2.8324603112617065e-02 +5.1994877236236547e-01 -3.6791958837332208e-03
5.5999999999999961e+00 -4.6331754618531606e+00 +0.0000000000000000e+00 +5.5999782245818901e+00 -2.8324776274030329e-02 +5.1994878289915425e-01 -3.6791463157538700e-03
5.6999999999999957e+00 -4.6326881313764288e+00 +0.0000000000000000e+00 +5.6999770370888729e+00 -2.8324939257481280e-02 +5.1994879096735935e-01 -3.6790979895309052e-03
5.7999999999999954e+00 -4.6321921756598590e+00 +0.0000000000000000e+00 +5.7999758071899468e+00 -2.8325090232703656e-02 +5.1994879624949764e-01 -3.6790511417765519e-03
5.8999999999999950e+00 -4.6316875947070528e+00 +0.0000000000000000e+00 +5.8999745341411556e+00 -2.8325227369916776e-02 +5.1994879842822261e-01 -3.6790060093066694e-03
5.9999999999999947e+00 -4.6311743885217291e+00 +0.0000000000000000e+00 +5.9999732171985425e+00 -2.8325348839844004e-02 +5.1994879718633313e-01 -3.6789628290445613e-03
6.0999999999999943e+00 -4.6306525571077266e+00 +0.0000000000000000e+00 +6.0999718556181515e+00 -2.8325453259164104e-02 +5.1994879217782741e-01 -3.6789217861381359e-03
6.1999999999999940e+00 -4.6301221004690110e+00 +0.0000000000000000e+00 +6.1999704486560274e+00 -2.8325541028066403e-02 +5.1994878294097779e-01 -3.6788828580876592e-03
6.2999999999999936e+00 -4.6295830186096829e+00 +0.0000000000000000e+00 +6.2999689955682161e+00 -2.8325612992904866e-02 +5.1994876898533116e-01 -3.6788459704040436e-03
6.3999999999999932e+00 -4.6290353115339853e+00 +0.0000000000000000e+00 +6.3999674956107642e+00 -2.8325669999996115e-02 +5.1994874982073791e-01 -3.6788110485647643e-03
6.4999999999999929e+00 -4.6284789792463119e+00 +0.0000000000000000e+00 +6.4999659480397192e+00 -2.8325712895613989e-02 +5.1994872495736744e-01 -3.6787780180117099e-03
6.5999999999999925e+00 -4.6279140217512138e+00 +0.0000000000000000e+00 +6.5999643521111295e+00 -2.8325742525984091e-02 +5.1994869390572385e-01 -3.6787468041490265e-03
6.6999999999999922e+00 -4.6273404390534107e+00 +0.0000000000000000e+00 +6.6999627070810446e+00 -2.8325759737278269e-02 +5.1994865617666075e-01 -3.6787173323409618e-03
6.7999999999999918e+00 -4.6267582311577966e+00 +0.0000000000000000e+00 +6.7999610122055145e+00 -2.8325765375609099e-02 +5.1994861128139758e-01 -3.6786895279097144e-03
6.8999999999999915e+00 -4.6261673980694473e+00 +0.0000000000000000e+00 +6.8999592667405913e+00 -2.8325760287024306e-02 +5.1994855873153367e-01 -3.6786633161332793e-03
6.9999999999999911e+00 -4.6255679397936316e+00 +0.0000000000000000e+00 +6.9999574699423279e+00 -2.8325745317501230e-02 +5.1994849803906540e-01 -3.6786386222433013e-03
7.0999999999999908e+00 -4.6249598563358161e+00 +0.0000000000000000e+00 +7.0999556210667789e+00 -2.8325721312941140e-02 +5.1994842871640001e-01 -3.6786153714229203e-03
7.1999999999999904e+00 -4.6243431477016754e+00 +0.0000000000000000e+00 +7.1999537193700007e+00 -2.8325689119163635e-02 +5.1994835027637187e-01 -3.6785934888046261e-03
7.2999999999999901e+00 -4.6237178138971000e+00 +0.0000000000000000e+00 +7.2999517641080516e+00 -2.8325649581900952e-02 +5.1994826223225843e-01 -3.6785728994681130e-03
7.3999999999999897e+00 -4.6230838549282032e+00 +0.0000000000000000e+00 +7.3999497545369897e+00 -2.8325603546792238e-02 +5.1994816409779476e-01 -3.6785535284381285e-03
7.4999999999999893e+00 -4.6224412708013300e+00 +0.0000000000000000e+00 +7.4999476899128776e+00 -2.8325551859377796e-02 +5.1994805538718969e-01 -3.6785353006823351e-03
7.5999999999999890e+00 -4.6217900615230647e+00 +0.0000000000000000e+00 +7.5999455694917781e+00 -2.8325495365093368e-02 +5.1994793561514119e-01 -3.6785181411091612e-03
7.6999999999999886e+00 -4.6211302271002399e+00 +0.0000000000000000e+00 +7.6999433925297565e+00 -2.8325434909264209e-02 +5.1994780429685172e-01 -3.6785019745656671e-03
7.7999999999999883e+00 -4.6204617675399433e+00 +0.0000000000000000e+00 +7.7999411582828797e+00 -2.8325371337099323e-02 +5.1994766094804423e-01 -3.6784867258353969e-03
7.8999999999999879e+00 -4.6197846828495273e+00 +0.0000000000000000e+00 +7.8999388660072185e+00 -2.8325305493685535e-02 +5.1994750508497745e-01 -3.6784723196362466e-03
7.9999999999999876e+00 -4.6190989730366141e+00 +0.0000000000000000e+00 +7.9999365149588453e+00 -2.8325238223981558e-02 +5.1994733622446188e-01 -3.6784586806183246e-03
8.0999999999999872e+00 -4.6184046381091077e+00 +0.0000000000000000e+00 +8.0999341043938351e+00 -2.8325170387132208e-02 +5.1994715410361703e-01 -3.6784457076829672e-03
8.1999999999999869e+00 -4.6177016780751936e+00 +0.0000000000000000e+00 +8.1999316335682657e+00 -2.8325102899461385e-02 +5.1994695934064861e-01 -3.6784331967794691e-03
8.2999999999999865e+00 -4.6169900929433316e+00 +0.0000000000000000e+00 +8.2999291017382166e+00 -2.8325036691324797e-02 +5.1994675277455038e-01 -3.6784209180933912e-03
8.3999999999999861e+00 -4.6162698827222401e+00 +0.0000000000000000e+00 +8.3999265081597727e+00 -2.8324972692705924e-02 +5.1994653524448942e-01 -3.6784086418320001e-03
8.4999999999999858e+00 -4.6155410474208853e+00 +0.0000000000000000e+00 +8.4999238520890188e+00 -2.8324911833204462e-02 +5.1994630758980975e-01 -3.6783961382252000e-03
8.5999999999999854e+00 -4.6148035870484643e+00 +0.0000000000000000e+00 +8.5999211327820433e+00 -2.8324855042024637e-02 +5.1994607065003240e-01 -3.6783831775264756e-03
8.6999999999999851e+00 -4.6140575016143925e+00 +0.0000000000000000e+00 +8.6999183494949364e+00 -2.8324803247963611e-02 +5.1994582526485966e-01 -3.6783695300138517e-03
8.7999999999999847e+00 -4.6133027911282909e+00 +0.0000000000000000e+00 +8.7999155014837935e+00 -2.8324757379399865e-02 +5.1994557227417393e-01 -3.6783549659908646e-03
8.8999999999999844e+00 -4.6125394555999684e+00 +0.0000000000000000e+00 +8.8999125880047103e+00 -2.8324718364281725e-02 +5.1994531251804288e-01 -3.6783392557875592e-03
8.9999999999999840e+00 -4.6117674950394125e+00 +0.0000000000000000e+00 +8.9999096083137839e+00 -2.8324687130115746e-02 +5.1994504683671905e-01 -3.6783221697614886e-03
9.0999999999999837e+00 -4.6109869094567726e+00 +0.0000000000000000e+00 +9.0999065616671171e+00 -2.8324664603955271e-02 +5.1994477607064193e-01 -3.6783034782987408e-03
9.1999999999999833e+00 -4.6101976988623452e+00 +0.0000000000000000e+00 +9.1999034473208123e+00 -2.8324651712388908e-02 +5.1994450106044021e-01 -3.6782829518149738e-03
9.2999999999999829e+00 -4.6093998632665629e+00 +0.0000000000000000e+00 +9.2999002645309741e+00 -2.8324649381529118e-02 +5.1994422264693319e-01 -3.6782603607564764e-03
9.3999999999999826e+00 -4.6085934026799791e+00 +0.0000000000000000e+00 +9.3998970125537102e+00 -2.8324658537000807e-02 +5.1994394167113200e-01 -3.6782354756012430e-03
9.4999999999999822e+00 -4.6077783171132527e+00 +0.0000000000000000e+00 +9.4998936906451323e+00 -2.8324680103929904e-02 +5.1994365897424233e-01 -3.6782080668600575e-03
9.5999999999999819e+00 -4.6069546065771361e+00 +0.0000000000000000e+00 +9.5998902980613501e+00 -2.8324715006932056e-02 +5.1994337539766433e-01 -3.6781779050776135e-03
9.6999999999999815e+00 -4.6061222710824596e+00 +0.0000000000000000e+00 +9.6998868340584767e+00 -2.8324764170101237e-02 +5.1994309178299492e-01 -3.6781447608336326e-03
9.7999999999999812e+00 -4.6052813106401196e+00 +0.0000000000000000e+00 +9.7998832978926291e+00 -2.8324828516998538e-02 +5.1994280897203016e-01 -3.6781084047440194e-03
9.8999999999999808e+00 -4.6044317252610618e+00 +0.0000000000000000e+00 +9.8998796888199223e+00 -2.8324908970640817e-02 +5.1994252780676453e-01 -3.6780686074620182e-03
9.9999999999999805e+00 -4.6035735149562695e+00 +0.0000000000000000e+00 +9.9998760060964766e+00 -2.8325006453489593e-02 +5.1994224912939413e-01 -3.6780251396794114e-03
1.0099999999999980e+01 -4.6027066797367500e+00 +0.0000000000000000e+00 +1.0099872248978411e+01 -2.8325121426877153e-02 +5.1994197368998507e-01 -3.6779778739610856e-03
1.0199999999999980e+01 -4.6018312196135200e+00 +0.0000000000000000e+00 +1.0199868416721845e+01 -2.8325252502792164e-02 +5.1994170186762911e-01 -3.6779270917313852e-03
1.0299999999999979e+01 -4.6009471345976012e+00 +0.0000000000000000e+00 +1.0299864508582903e+01 -2.8325397829608807e-02 +5.1994143394728276e-01 -3.6778731769581512e-03
1.0399999999999979e+01 -4.6000544247000148e+00 +0.0000000000000000e+00 +1.0399860523817708e+01 -2.8325555556189944e-02 +5.1994117021263786e-01 -3.6778165135489681e-03
1.0499999999999979e+01 -4.5991530899317761e+00 +0.0000000000000000e+00 +1.0499856461682382e+01 -2.8325723831901649e-02 +5.1994091094608874e-01 -3.6777574853493842e-03
1.0599999999999978e+01 -4.5982431303038913e+00 +0.0000000000000000e+00 +1.0599852321433055e+01 -2.8325900806627845e-02 +5.1994065642869969e-01 -3.6776964761411355e-03
1.0699999999999978e+01 -4.5973245458273517e+00 +0.0000000000000000e+00 +1.0699848102325850e+01 -2.8326084630784811e-02 +5.1994040694017252e-01 -3.6776338696403467e-03
1.0799999999999978e+01 -4.5963973365131290e+00 +0.0000000000000000e+00 +1.0799843803616897e+01 -2.8326273455335862e-02 +5.1994016275881327e-01 -3.6775700494957242e-03
1.0899999999999977e+01 -4.5954615023721708e+00 +0.0000000000000000e+00 +1.0899839424562321e+01 -2.8326465431805951e-02 +5.1993992416150003e-01 -3.6775053992867211e-03
1.0999999999999977e+01 -4.5945170434153972e+00 +0.0000000000000000e+00 +1.0999834964418254e+01 -2.8326658712296341e-02 +5.1993969142364949e-01 -3.6774403025217057e-03
1.1099999999999977e+01 -4.5935639596536948e+00 +0.0000000000000000e+00 +1.1099830422440824e+01 -2.8326851449499323e-02 +5.1993946481918496e-01 -3.6773751426361005e-03
1.1199999999999976e+01 -4.5926022510979116e+00 +0.0000000000000000e+00 +1.1199825797886163e+01 -2.8327041796712877e-02 +5.1993924462050378e-01 -3.6773103029905168e-03
1.1299999999999976e+01 -4.5916319177588552e+00 +0.0000000000000000e+00 +1.1299821090010401e+01 -2.8327227907855471e-02 +5.1993903109844375e-01 -3.6772461668688632e-03
1.1399999999999975e+01 -4.5906529596472856e+00 +0.0000000000000000e+00 +1.1399816298069668e+01 -2.8327407937480762e-02 +5.1993882452225126e-01 -3.6771831174764445e-03
1.1499999999999975e+01 -4.5896653767739126e+00 +0.0000000000000000e+00 +1.1499811421320098e+01 -2.8327580040792465e-02 +5.1993862515954892e-01 -3.6771215379380493e-03
1.1599999999999975e+01 -4.5886691691493890e+00 +0.0000000000000000e+00 +1.1599806459017822e+01 -2.8327742373659089e-02 +5.1993843327630185e-01 -3.6770618112960062e-03
1.1699999999999974e+01 -4.5876643367843091e+00 +0.0000000000000000e+00 +1.1699801410418974e+01 -2.8327893092628845e-02 +5.1993824913678621e-01 -3.6770043205082395e-03
1.1799999999999974e+01 -4.5866508796892020e+00 +0.0000000000000000e+00 +1.1799796274779684e+01 -2.8328030354944512e-02 +5.1993807300355632e-01 -3.6769494484463002e-03
