# multipoles
# s[mm] polynom_b[n=0][T/m^n] polynom_b[n=1][T/m^n] polynom_b[n=2][T/m^n] polynom_b[n=3][T/m^n] polynom_b[n=4][T/m^n] polynom_b[n=5][T/m^n] polynom_b[n=6][T/m^n] 
+0.0000000000000000e+00 +5.1995140047292088e-01 +7.0888649739546828e-04 -6.5593701936400717e-01 +2.0243225354317982e+01 +6.3020220820211061e+03 -1.1759621358597200e+05 -2.8625936001146063e+07 
+1.0000000000000001e-01 +5.1995132524045140e-01 +7.0285185678086565e-04 -6.5342107548488915e-01 +2.0404296330710437e+01 +6.2547825211755344e+03 -1.1856717641056821e+05 -2.8405854092406828e+07 
+2.0000000000000001e-01 +5.1995124285318606e-01 +6.9569228283084634e-04 -6.5068222862550740e-01 +2.0597110814078299e+01 +6.2046147448776483e+03 -1.1969002168261081e+05 -2.8176494000320729e+07 
+3.0000000000000004e-01 +5.1995115394223224e-01 +6.8760237066773017e-04 -6.4774521939618968e-01 +2.0816499827160758e+01 +6.1518967966794316e+03 -1.2093724773763254e+05 -2.7939291158589937e+07 
+4.0000000000000002e-01 +5.1995105913866935e-01 +6.7877674182500124e-04 -6.4463478698489896e-01 +2.1057293621745554e+01 +6.0970067383834275e+03 -1.2228134864389057e+05 -2.7695681235289242e+07 
+5.0000000000000000e-01 +5.1995095907355904e-01 +6.6941003512232850e-04 -6.4137566977744187e-01 +2.1314321954640121e+01 +6.0403226533302059e+03 -1.2369481579406493e+05 -2.7447100119423799e+07 
+5.9999999999999998e-01 +5.1995085437800481e-01 +6.5969690717452483e-04 -6.3799261222470449e-01 +2.1582414075147693e+01 +5.9822227685937505e+03 -1.2515013779553375e+05 -2.7194984470243208e+07 
+6.9999999999999996e-01 +5.1995074568313682e-01 +6.4983202445255872e-04 -6.3451036267730054e-01 +2.1856398951796390e+01 +5.9230854068834051e+03 -1.2661980173721616e+05 -2.6940771463674165e+07 
+7.9999999999999993e-01 +5.1995063362016725e-01 +6.4001006373709491e-04 -6.3095367974075822e-01 +2.2131105275186133e+01 +5.8632891010075600e+03 -1.2807629320818066e+05 -2.6685899311768331e+07 
+8.9999999999999991e-01 +5.1995051882039156e-01 +6.3042570332263060e-04 -6.2734733248201002e-01 +2.2401361704761072e+01 +5.8032125918356860e+03 -1.2949209766107258e+05 -2.6431807228483420e+07 
+9.9999999999999989e-01 +5.1995040191521547e-01 +6.2127362456341985e-04 -6.2371610291218382e-01 +2.2661996830906197e+01 +5.7432348666134276e+03 -1.3083970017710378e+05 -2.6179935582169827e+07 
+1.0999999999999999e+00 +5.1995028353620054e-01 +6.1274850182876646e-04 -6.2008479138835271e-01 +2.2907839478503867e+01 +5.6837352543032848e+03 -1.3209158721115114e+05 -2.5931726319406532e+07 
+1.2000000000000000e+00 +5.1995016431505592e-01 +6.0504500521578464e-04 -6.1647821532376279e-01 +2.3133718617942989e+01 +5.6250933956082499e+03 -1.3322024601286012e+05 -2.5688622802263066e+07 
+1.3000000000000000e+00 +5.1995004488368168e-01 +5.9835778996937083e-04 -6.1292121431726376e-01 +2.3334463685153359e+01 +5.5676893337560077e+03 -1.3419816647313986e+05 -2.5452070212949205e+07 
+1.4000000000000001e+00 +5.1994992587419586e-01 +5.9288149990399251e-04 -6.0943865256747909e-01 +2.3504904480812215e+01 +5.5119035493390402e+03 -1.3499784049829966e+05 -2.5223515682226185e+07 
+1.5000000000000002e+00 +5.1994980791893097e-01 +5.8881075601592309e-04 -6.0605541878064484e-01 +2.3639871511098654e+01 +5.4581169582007960e+03 -1.3559176396988641e+05 -2.5004408272799786e+07 
+1.6000000000000003e+00 +5.1994969165048710e-01 +5.8634015590263680e-04 -6.0279643180363762e-01 +2.3734196002489160e+01 +5.4067110054725335e+03 -1.3595243678410619e+05 -2.4796199381436583e+07 
+1.7000000000000004e+00 +5.1994957770175076e-01 +5.8566427277513490e-04 -5.9968664295431184e-01 +2.3782709932891503e+01 +5.3580677051745470e+03 -1.3605236300382699e+05 -2.4600342907537587e+07 
+1.8000000000000005e+00 +5.1994946670589914e-01 +5.8697764603692028e-04 -5.9675103595527945e-01 +2.3780246311860051e+01 +5.3125696328432214e+03 -1.3586405245290830e+05 -2.4418295195646863e+07 
+1.9000000000000006e+00 +5.1994935929644126e-01 +5.9047478165537802e-04 -5.9401463173593694e-01 +2.3721639172310795e+01 +5.2706000080207532e+03 -1.3536002064116011e+05 -2.4251515394715656e+07 
+2.0000000000000004e+00 +5.1994925610726006e-01 +5.9635011927381602e-04 -5.9150248969041741e-01 +2.3601725023888442e+01 +5.2325426174949735e+03 -1.3451279617783986e+05 -2.4101464967762165e+07 
+2.1000000000000005e+00 +5.1994915768508987e-01 +6.0472730790193268e-04 -5.8923614474313446e-01 +2.3417251666338071e+01 +5.1986919153684594e+03 -1.3330521683787272e+05 -2.3969154712243777e+07 
+2.2000000000000006e+00 +5.1994906413029818e-01 +6.1544606436769516e-04 -5.8722397283884109e-01 +2.3172120450750338e+01 +5.1690914840019423e+03 -1.3175922455653068e+05 -2.3854521973037705e+07 
+2.3000000000000007e+00 +5.1994897540727036e-01 +6.2827129391661947e-04 -5.8547140366326478e-01 +2.2872027798561394e+01 +5.1437461983396952e+03 -1.2990688084764409e+05 -2.3757413328927845e+07 
+2.4000000000000008e+00 +5.1994889148026469e-01 +6.4296784532491037e-04 -5.8398385624901761e-01 +2.2522671872139679e+01 +5.1226607588434890e+03 -1.2778026157897574e+05 -2.3677674986678816e+07 
+2.5000000000000009e+00 +5.1994881231339662e-01 +6.5930052762193218e-04 -5.8276673408032087e-01 +2.2129751847008183e+01 +5.1058395728109044e+03 -1.2541144800376749e+05 -2.3615151779154897e+07 
+2.6000000000000010e+00 +5.1994873787059148e-01 +6.7703411079737754e-04 -5.8182541923014353e-01 +2.1698967877434431e+01 +5.0932866419854927e+03 -1.2283252653969495e+05 -2.3569686634490084e+07 
+2.7000000000000011e+00 +5.1994866811557217e-01 +6.9593332259913982e-04 -5.8116527151477781e-01 +2.1236021168203500e+01 +5.0850055522326929e+03 -1.2007558912822897e+05 -2.3541120547707409e+07 
+2.8000000000000012e+00 +5.1994860301182722e-01 +7.1576284997529338e-04 -5.8079162476659663e-01 +2.0746613922834548e+01 +5.0809994022294923e+03 -1.1717273292738805e+05 -2.3529292245096594e+07 
+2.9000000000000012e+00 +5.1994854252255196e-01 +7.3628733207253773e-04 -5.8070977995748319e-01 +2.0236449525662639e+01 +5.0812706779314485e+03 -1.1415606130706589e+05 -2.3534037609072179e+07 
+3.0000000000000013e+00 +5.1994848661064041e-01 +7.5727136215450550e-04 -5.8092500453146767e-01 +1.9711232473012551e+01 +5.0858212408561903e+03 -1.1105768342889748e+05 -2.3555189630000874e+07 
+3.1000000000000014e+00 +5.1994843523865952e-01 +7.7847948410952807e-04 -5.8144252961518472e-01 +1.9176668463013552e+01 +5.0946522776626380e+03 -1.0790971474540702e+05 -2.3592578177368414e+07 
+3.2000000000000015e+00 +5.1994838836878565e-01 +7.9967619088242893e-04 -5.8226754236930622e-01 +1.8638464416149571e+01 +5.1077641573330611e+03 -1.0474427705746199e+05 -2.3646029336821411e+07 
+3.3000000000000016e+00 +5.1994834596279260e-01 +8.2062592289001925e-04 -5.8340518523753881e-01 +1.8102328511884867e+01 +5.1251564217022797e+03 -1.0159349870750624e+05 -2.3715365381644733e+07 
+3.4000000000000017e+00 +5.1994830798203062e-01 +8.4109306501238578e-04 -5.8486055319212071e-01 +1.7573970257734132e+01 +5.1468277298205676e+03 -9.8489514943906557e+04 -2.3800404504268456e+07 
+3.5000000000000018e+00 +5.1994827438736579e-01 +8.6084194713191748e-04 -5.8663868706093003e-01 +1.7059100459295014e+01 +5.1727757418302936e+03 -9.5464467711837307e+04 -2.3900960301876619e+07 
+3.6000000000000019e+00 +5.1994824513916782e-01 +8.7963683877426255e-04 -5.8874457211366671e-01 +1.6563431356175411e+01 +5.2029970866271869e+03 -9.2550506401840306e+04 -2.4016841610200997e+07 
+3.7000000000000020e+00 +5.1994822019727727e-01 +8.9724195103330561e-04 -5.9118313452035165e-01 +1.6092676554759922e+01 +5.2374873030482950e+03 -8.9779787428824740e+04 -2.4147852254655350e+07 
+3.8000000000000020e+00 +5.1994819952095361e-01 +9.1342143110638213e-04 -5.9395923492742353e-01 +1.5652551168762507e+01 +5.2762407160616385e+03 -8.7184475013391202e+04 -2.4293790463617094e+07 
+3.9000000000000021e+00 +5.1994818306887425e-01 +9.2793936269252621e-04 -5.9707766950912300e-01 +1.5248771787232508e+01 +5.3192504633265271e+03 -8.4796740946906459e+04 -2.4454449014154859e+07 
+4.0000000000000018e+00 +5.1994817079866873e-01 +9.4055986502326059e-04 -6.0054311735007926e-01 +1.4887047856981173e+01 +5.3665081365395999e+03 -8.2648680688503417e+04 -2.4629617437852014e+07 
+4.1000000000000014e+00 +5.1994816255749521e-01 +9.5109128334243235e-04 -6.0435158011370327e-01 +1.4571723750395622e+01 +5.4179103858529679e+03 -8.0763465250973604e+04 -2.4818895320934240e+07 
+4.2000000000000011e+00 +5.1994815796176652e-01 +9.5950804120839930e-04 -6.0847633860244821e-01 +1.4303161501379821e+01 +5.4730932082700192e+03 -7.9140706987550177e+04 -2.5021101632038679e+07 
+4.3000000000000007e+00 +5.1994815661072968e-01 +9.6582773583046031e-04 -6.1288633021272554e-01 +1.4080908649151199e+01 +5.5316475500840861e+03 -7.7775052250264096e+04 -2.5234864252661999e+07 
+4.4000000000000004e+00 +5.1994815810367856e-01 +9.7006804544778880e-04 -6.1755049919840310e-01 +1.3904510971058130e+01 +5.5931647631789838e+03 -7.6661109521158651e+04 -2.5458811153466009e+07 
+4.5000000000000000e+00 +5.1994816203986072e-01 +9.7224671692911998e-04 -6.2243779115123210e-01 +1.3773512329467131e+01 +5.6572363285886649e+03 -7.5793477534847494e+04 -2.5691571179094821e+07 
+4.5999999999999996e+00 +5.1994816801847898e-01 +9.7238157068645580e-04 -6.2751715277066478e-01 +1.3687454549308859e+01 +5.7234538541444253e+03 -7.5166744682648205e+04 -2.5931774042811140e+07 
+4.6999999999999993e+00 +5.1994817563869955e-01 +9.7049050365182214e-04 -6.3275753389946598e-01 +1.3645877338569054e+01 +5.7914091238821784e+03 -7.4775488639839779e+04 -2.6178050587557212e+07 
+4.7999999999999989e+00 +5.1994818449965441e-01 +9.6659149811196860e-04 -6.3812788733801784e-01 +1.3648318050922942e+01 +5.8606940939340020e+03 -7.4614275099158287e+04 -2.6429032762918681e+07 
+4.8999999999999986e+00 +5.1994819420045713e-01 +9.6070262517456047e-04 -6.4359717158855190e-01 +1.3694311587201771e+01 +5.9309009542361910e+03 -7.4677657276462051e+04 -2.6683353941924147e+07 
+4.9999999999999982e+00 +5.1994820434021605e-01 +9.5284205308314245e-04 -6.4913435237608885e-01 +1.3783390184867754e+01 +6.0016221599605597e+03 -7.4960174836838269e+04 -2.6939649074881997e+07 
+5.0999999999999979e+00 +5.1994821451801276e-01 +9.4302804651963975e-04 -6.5470840020374088e-01 +1.3915083436383563e+01 +6.0724503907384433e+03 -7.5456354059132980e+04 -2.7196554511114392e+07 
+5.1999999999999975e+00 +5.1994822433294707e-01 +9.3127897985393205e-04 -6.6028829629582098e-01 +1.4088917922377886e+01 +6.1429786684823039e+03 -7.6160705824983350e+04 -2.7452708566795144e+07 
+5.2999999999999972e+00 +5.1994823338410523e-01 +9.1761333742608074e-04 -6.6584302886253599e-01 +1.4304417222930262e+01 +6.2128002934038122e+03 -7.7067725802461340e+04 -2.7706751241409689e+07 
+5.3999999999999968e+00 +5.1994824127059136e-01 +9.0204972140266019e-04 -6.7134159708547003e-01 +1.4561101692948396e+01 +6.2815089219418151e+03 -7.8171893216075638e+04 -2.7957324589192044e+07 
+5.4999999999999964e+00 +5.1994824759154001e-01 +8.8460685665336177e-04 -6.7675301320072945e-01 +1.4858488342576671e+01 +6.3486986143478634e+03 -7.9467670283318337e+04 -2.8203072965489723e+07 
+5.5999999999999961e+00 +5.1994825194609784e-01 +8.6530359610092014e-04 -6.8204629996779509e-01 +1.5196090692307555e+01 +6.4139637884272033e+03 -8.0949501463486216e+04 -2.8442642811302990e+07 
+5.6999999999999957e+00 +5.1994825393345290e-01 +8.4415892538461975e-04 -6.8719049483100203e-01 +1.5573418650329010e+01 +6.4768993059089562e+03 -8.2611812849190770e+04 -2.8674683079636876e+07 
+5.7999999999999954e+00 +5.1994825315282944e-01 +8.2119197122286069e-04 -6.9215464969000229e-01 +1.5989978282356436e+01 +6.5371004741669685e+03 -8.4449010934963124e+04 -2.8897845258828532e+07 
+5.8999999999999950e+00 +5.1994824920350058e-01 +7.9642200454906476e-04 -6.9690783215677632e-01 +1.6445271744495777e+01 +6.5941630717026983e+03 -8.6455482355220403e+04 -2.9110783496405769e+07 
+5.9999999999999947e+00 +5.1994824168621945e-01 +7.6986870733598096e-04 -7.0141940218163612e-01 +1.6938810540162258e+01 +6.6476874794974492e+03 -8.8625892934012241e+04 -2.9312154692681387e+07 
+6.0999999999999943e+00 +5.1994823022094783e-01 +7.4159745790623765e-04 -7.0567100945053485e-01 +1.7469388284030913e+01 +6.6975089033576887e+03 -9.0955030336627853e+04 -2.9501440065333474e+07 
+6.1999999999999940e+00 +5.1994821438728089e-01 +7.1177725406658908e-04 -7.0965663934508783e-01 +1.8033659553829157e+01 +6.7437004156260218e+03 -9.3429973135191656e+04 -2.9678999901387330e+07 
+6.2999999999999936e+00 +5.1994819374491663e-01 +6.8060080278849471e-04 -7.1336835981915392e-01 +1.8627626631067436e+01 +6.7862819599802178e+03 -9.6034468205390644e+04 -2.9844903757869795e+07 
+6.3999999999999932e+00 +5.1994816785349951e-01 +6.4826124885932900e-04 -7.1679816019956910e-01 +1.9247276806638091e+01 +6.8252708745858181e+03 -9.8752182300880741e+04 -2.9999206854857404e+07 
+6.4999999999999929e+00 +5.1994813627304148e-01 +6.1495179098014735e-04 -7.1993805419424184e-01 +1.9888597229049630e+01 +6.8606847005022455e+03 -1.0156678273979003e+05 -3.0141964730084892e+07 
+6.5999999999999925e+00 +5.1994809856396085e-01 +5.8086567725102703e-04 -7.2278008341615485e-01 +2.0547575087201061e+01 +6.8925412389620460e+03 -1.0446193848122281e+05 -3.0273233488399953e+07 
+6.6999999999999922e+00 +5.1994805428704127e-01 +5.4619620957722210e-04 -7.2531631162109289e-01 +2.1220197532617203e+01 +6.9208584289163227e+03 -1.0742131970013086e+05 -3.0393069188653499e+07 
+6.7999999999999918e+00 +5.1994800300352728e-01 +5.1113674319770578e-04 -7.2753883533822483e-01 +2.1902451739743874e+01 +6.9456545372348055e+03 -1.1042859813610268e+05 -3.0501528714705020e+07 
+6.8999999999999915e+00 +5.1994794427508229e-01 +4.7588068722803823e-04 -7.2943977786941372e-01 +2.2590324949298086e+01 +6.9669480327138472e+03 -1.1346744739590651e+05 -3.0598669149150848e+07 
+6.9999999999999911e+00 +5.1994787766383610e-01 +4.4062150567531898e-04 -7.3101129400688147e-01 +2.3279804482642280e+01 +6.9847576639153995e+03 -1.1652154303140141e+05 -3.0684548112637307e+07 
+7.0999999999999908e+00 +5.1994780273237529e-01 +4.0555271896972349e-04 -7.3224556792806594e-01 +2.3966877750814668e+01 +6.9991024073048284e+03 -1.1957456262202693e+05 -3.0759223489144664e+07 
+7.1999999999999904e+00 +5.1994771904380288e-01 +3.7086790371484215e-04 -7.3313481964057003e-01 +2.4647532316728366e+01 +7.0100015768183139e+03 -1.2261018616772012e+05 -3.0822753911211625e+07 
+7.2999999999999901e+00 +5.1994762616170653e-01 +3.3676069277918441e-04 -7.3367129991527069e-01 +2.5317755935189481e+01 +7.0174747172075267e+03 -1.2561209631227472e+05 -3.0875198231221803e+07 
+7.3999999999999897e+00 +5.1994752365022323e-01 +3.0342477838045747e-04 -7.3384729743687727e-01 +2.5973536520746460e+01 +7.0215417259141268e+03 -1.2856397819921296e+05 -3.0916616061318945e+07 
+7.4999999999999893e+00 +5.1994741107400511e-01 +2.7105391121522360e-04 -7.3365513362600654e-01 +2.6610862220252152e+01 +7.0222227458292145e+03 -1.3144951990052810e+05 -3.0947067245905310e+07 
+7.5999999999999890e+00 +5.1994728799829160e-01 +2.3984189993417118e-04 -7.3308717062140261e-01 +2.7225721476627786e+01 +7.0195383027284333e+03 -1.3425241279717445e+05 -3.0966612475026652e+07 
+7.6999999999999886e+00 +5.1994715398888980e-01 +2.0998261567626547e-04 -7.3213580741581097e-01 +2.7814102955898413e+01 +7.0135092192192833e+03 -1.3695635119746425e+05 -3.0975312846742347e+07 
+7.7999999999999883e+00 +5.1994700861220045e-01 +1.8166998866425100e-04 -7.3079348266317723e-01 +2.8371995684147993e+01 +7.0041566585963756e+03 -1.3954503311600810e+05 -3.0973230051122382e+07 
+7.8999999999999879e+00 +5.1994685143524422e-01 +1.5509801070532952e-04 -7.2905267664571183e-01 +2.8895389035988163e+01 +6.9915021486566438e+03 -1.4200216024946643e+05 -3.0960426448373102e+07 
+7.9999999999999876e+00 +5.1994668202221672e-01 +1.3045929504455924e-04 -7.2690510822487375e-01 +2.9380270695989505e+01 +6.9755524863033543e+03 -1.4431072935334974e+05 -3.0936948508146733e+07 
+8.0999999999999872e+00 +5.1994650011533960e-01 +1.0785422479707568e-04 -7.2433459771397324e-01 +2.9824692676400591e+01 +6.9560500474932378e+03 -1.4645924742838726e+05 -3.0901794313788213e+07 
+8.1999999999999869e+00 +5.1994630623458915e-01 +8.7240145942343061e-05 -7.2134892382443860e-01 +3.0229800720571355e+01 +6.9329011111100535e+03 -1.4844951148277911e+05 -3.0854398999875862e+07 
+8.2999999999999865e+00 +5.1994610110238182e-01 +6.8557671370050036e-05 -7.1796807070209689e-01 +3.0596975292074472e+01 +6.9061742715140163e+03 -1.5028507136235430e+05 -3.0794895135079492e+07 
+8.3999999999999861e+00 +5.1994588544201215e-01 +5.1746800221892455e-05 -7.1421220346625336e-01 +3.0927615594252732e+01 +6.8759419940683601e+03 -1.5196971918107962e+05 -3.0723446170767143e+07 
+8.4999999999999858e+00 +5.1994565997681352e-01 +3.6747482350461099e-05 -7.1010149999683958e-01 +3.1223119847828848e+01 +6.8422771869992057e+03 -1.5350723824458619e+05 -3.0640218171764683e+07 
+8.5999999999999854e+00 +5.1994542543013955e-01 +2.3499613128081211e-05 -7.0565614925118147e-01 +3.1484885362919577e+01 +6.8052531782214464e+03 -1.5490140337343374e+05 -3.0545379727151360e+07 
+8.6999999999999851e+00 +5.1994518252536226e-01 +1.1943036640551328e-05 -7.0089635162285591e-01 +3.1714308354705320e+01 +6.7649437312497521e+03 -1.5615597970932818e+05 -3.0439102049834907e+07 
+8.7999999999999847e+00 +5.1994493198588587e-01 +2.0175374778253269e-06 -6.9584232074100261e-01 +3.1912784105744297e+01 +6.7214230838143576e+03 -1.5727472356618743e+05 -3.0321559168352809e+07 
+8.8999999999999844e+00 +5.1994467453511228e-01 -6.3371590074392265e-06 -6.9051427983486169e-01 +3.2081706868312011e+01 +6.6747658891569590e+03 -1.5826138174585305e+05 -3.0192927676465329e+07 
+8.9999999999999840e+00 +5.1994441089645682e-01 -1.3181388643339634e-05 -6.8493246416964615e-01 +3.2222469834863936e+01 +6.6250472710883196e+03 -1.5911969125110342e+05 -3.0053387015198488e+07 
+9.0999999999999837e+00 +5.1994414179336290e-01 -1.8575552505312993e-05 -6.7911712326727047e-01 +3.2336465179046158e+01 +6.5723428709728387e+03 -1.5985337943842058e+05 -2.9903119705800094e+07 
+9.1999999999999833e+00 +5.1994386794926506e-01 -2.2580119004880353e-05 -6.7308851682548043e-01 +3.2425084023885589e+01 +6.5167287811767155e+03 -1.6046616370412539e+05 -2.9742311063480098e+07 
+9.2999999999999829e+00 +5.1994359008760604e-01 -2.5255627805465571e-05 -6.6686691693383360e-01 +3.2489716473775971e+01 +6.4582815916417603e+03 -1.6096175156659874e+05 -2.9571149427710600e+07 
+9.3999999999999826e+00 +5.1994330893184459e-01 -2.6662687063664710e-05 -6.6047261011881941e-01 +3.2531751454641167e+01 +6.3970784401143865e+03 -1.6134383965609316e+05 -2.9389826428599805e+07 
+9.4999999999999822e+00 +5.1994302520542834e-01 -2.6861982993132557e-05 -6.5392589383438748e-01 +3.2552576901231802e+01 +6.3331969508844886e+03 -1.6161611466263878e+05 -2.9198536710147101e+07 
+9.5999999999999819e+00 +5.1994273963179460e-01 -2.5914277383667247e-05 -6.4724707733498654e-01 +3.2553579606456687e+01 +6.2667152595633397e+03 -1.6178225238834057e+05 -2.8997478067304425e+07 
+9.6999999999999815e+00 +5.1994245293438601e-01 -2.3880411644297647e-05 -6.4045648421184487e-01 +3.2536145250189620e+01 +6.1977120715608107e+03 -1.6184591778529130e+05 -2.8786851748574935e+07 
+9.7999999999999812e+00 +5.1994216583664643e-01 -2.0821310649391732e-05 -6.3357445200002582e-01 +3.2501658433558838e+01 +6.1262666587603726e+03 -1.6181076507066682e+05 -2.8566862449397508e+07 
+9.8999999999999808e+00 +5.1994187906198619e-01 -1.6797982736324194e-05 -6.2662132811293614e-01 +3.2451502591144312e+01 +6.0524587905437193e+03 -1.6168043711554780e+05 -2.8337718006775863e+07 
+9.9999999999999805e+00 +5.1994159334254286e-01 -1.1871021030902067e-05 -6.1961890688589594e-01 +3.2387153048729438e+01 +5.9763906202724329e+03 -1.6146051813532473e+05 -2.8099610546932463e+07 
+1.0099999999999980e+01 +5.1994130947116468e-01 -6.0868085417979976e-06 -6.1260411636603618e-01 +3.2309982105352802e+01 +5.8984708519801952e+03 -1.6116190228403447e+05 -2.7853751631100576e+07 
