# trajectory
# s[mm] rx[mm] ry[mm] rz[mm] px[rad] py[rad] pz[rad]
0.0000000000000000e+00 +4.6467000000000001e+00 +0.0000000000000000e+00 +0.0000000000000000e+00 +0.0000000000000000e+00 +0.0000000000000000e+00 +1.0000000000000000e+00
-1.0000000000000001e-01 +4.6466958845948749e+00 +0.0000000000000000e+00 -9.9999999887089602e-02 +8.2308103312456245e-05 +0.0000000000000000e+00 +9.9999999661268801e-01
-2.0000000000000001e-01 +4.6466835383791931e+00 +0.0000000000000000e+00 -1.9999999909671679e-01 +1.6461621095980895e-04 +0.0000000000000000e+00 +9.9999998645075139e-01
-3.0000000000000004e-01 +4.6466629613525745e+00 +0.0000000000000000e+00 -2.9999999695141899e-01 +2.4692432187195263e-04 +0.0000000000000000e+00 +9.9999996951418912e-01
-4.0000000000000002e-01 +4.6466341535147446e+00 +0.0000000000000000e+00 -3.9999999277373366e-01 +3.2923243501883074e-04 +0.0000000000000000e+00 +9.9999994580300033e-01
-5.0000000000000000e-01 +4.6465971148655294e+00 +0.0000000000000000e+00 -4.9999998588619810e-01 +4.1154054941041582e-04 +0.0000000000000000e+00 +9.9999991531718446e-01
-5.9999999999999998e-01 +4.6465518454048524e+00 +0.0000000000000000e+00 -5.9999997561134966e-01 +4.9384866409669438e-04 +0.0000000000000000e+00 +9.9999987805674095e-01
-6.9999999999999996e-01 +4.6464983451327306e+00 +0.0000000000000000e+00 -6.9999996127172537e-01 +5.7615677816765659e-04 +0.0000000000000000e+00 +9.9999983402166959e-01
-7.9999999999999993e-01 +4.6464366140492688e+00 +0.0000000000000000e+00 -7.9999994218986259e-01 +6.5846489075329056e-04 +0.0000000000000000e+00 +9.9999978321197025e-01
-8.9999999999999991e-01 +4.6463666521546569e+00 +0.0000000000000000e+00 -8.9999991768829846e-01 +7.4077300102358141e-04 +0.0000000000000000e+00 +9.9999972562764272e-01
-9.9999999999999989e-01 +4.6462884594491669e+00 +0.0000000000000000e+00 -9.9999988708957022e-01 +8.2308110818851514e-04 +0.0000000000000000e+00 +9.9999966126868722e-01
-1.0999999999999999e+00 +4.6462020359331477e+00 +0.0000000000000000e+00 -1.0999998497162149e+00 +9.0538921149808721e-04 +0.0000000000000000e+00 +9.9999959013510376e-01
-1.2000000000000000e+00 +4.6461073816070195e+00 +0.0000000000000000e+00 -1.1999998048907699e+00 +9.8769731024231583e-04 +0.0000000000000000e+00 +9.9999951222689265e-01
-1.3000000000000000e+00 +4.6460044964712734e+00 +0.0000000000000000e+00 -1.2999997519357724e+00 +1.0700054037512596e-03 +0.0000000000000000e+00 +9.9999942754405402e-01
-1.4000000000000001e+00 +4.6458933805264646e+00 +0.0000000000000000e+00 -1.3999996901737597e+00 +1.1523134913950408e-03 +0.0000000000000000e+00 +9.9999933608658831e-01
-1.5000000000000002e+00 +4.6457740337732094e+00 +0.0000000000000000e+00 -1.4999996189272691e+00 +1.2346215725838727e-03 +0.0000000000000000e+00 +9.9999923785449574e-01
-1.6000000000000003e+00 +4.6456464562121811e+00 +0.0000000000000000e+00 -1.5999995375188378e+00 +1.3169296467680914e-03 +0.0000000000000000e+00 +9.9999913284777664e-01
-1.7000000000000004e+00 +4.6455106478441062e+00 +0.0000000000000000e+00 -1.6999994452710034e+00 +1.3992377134381935e-03 +0.0000000000000000e+00 +9.9999902106643135e-01
-1.8000000000000005e+00 +4.6453666086697600e+00 +0.0000000000000000e+00 -1.7999993415063031e+00 +1.4815457721248767e-03 +0.0000000000000000e+00 +9.9999890251046020e-01
-1.9000000000000006e+00 +4.6452143386899625e+00 +0.0000000000000000e+00 -1.8999992255472744e+00 +1.5638538223990872e-03 +0.0000000000000000e+00 +9.9999877717986330e-01
-2.0000000000000004e+00 +4.6450538379055741e+00 +0.0000000000000000e+00 -1.9999990967164547e+00 +1.6461618638720700e-03 +0.0000000000000000e+00 +9.9999864507464087e-01
-2.1000000000000005e+00 +4.6448851063174930e+00 +0.0000000000000000e+00 -2.0999989543363817e+00 +1.7284698961904489e-03 +0.0000000000000000e+00 +9.9999850619479302e-01
-2.2000000000000006e+00 +4.6447081439266533e+00 +0.0000000000000000e+00 -2.1999987977295925e+00 +1.8107779189815360e-03 +0.0000000000000000e+00 +9.9999836054031987e-01
-2.3000000000000007e+00 +4.6445229507340295e+00 +0.0000000000000000e+00 -2.2999986262186249e+00 +1.8930859317986086e-03 +0.0000000000000000e+00 +9.9999820811122175e-01
-2.4000000000000008e+00 +4.6443295267406439e+00 +0.0000000000000000e+00 -2.3999984391260161e+00 +1.9753939341159341e-03 +0.0000000000000000e+00 +9.9999804890749888e-01
-2.5000000000000009e+00 +4.6441278719475765e+00 +0.0000000000000000e+00 -2.4999982357743038e+00 +2.0577019253287666e-03 +0.0000000000000000e+00 +9.9999788292915204e-01
-2.6000000000000010e+00 +4.6439179863559712e+00 +0.0000000000000000e+00 -2.5999980154860256e+00 +2.1400099047533430e-03 +0.0000000000000000e+00 +9.9999771017618189e-01
-2.7000000000000011e+00 +4.6436998699670440e+00 +0.0000000000000000e+00 -2.6999977775837194e+00 +2.2223178716268750e-03 +0.0000000000000000e+00 +9.9999753064858965e-01
-2.8000000000000012e+00 +4.6434735227820916e+00 +0.0000000000000000e+00 -2.7999975213899231e+00 +2.3046258251075377e-03 +0.0000000000000000e+00 +9.9999734434637666e-01
-2.9000000000000012e+00 +4.6432389448024995e+00 +0.0000000000000000e+00 -2.8999972462271741e+00 +2.3869337642744588e-03 +0.0000000000000000e+00 +9.9999715126954458e-01
-3.0000000000000013e+00 +4.6429961360297476e+00 +0.0000000000000000e+00 -2.9999969514180114e+00 +2.4692416881277007e-03 +0.0000000000000000e+00 +9.9999695141809564e-01
-3.1000000000000014e+00 +4.6427450964654202e+00 +0.0000000000000000e+00 -3.0999966362849727e+00 +2.5515495955882443e-03 +0.0000000000000000e+00 +9.9999674479203216e-01
-3.2000000000000015e+00 +4.6424858261112147e+00 +0.0000000000000000e+00 -3.1999963001505973e+00 +2.6338574854979672e-03 +0.0000000000000000e+00 +9.9999653139135714e-01
-3.3000000000000016e+00 +4.6422183249689466e+00 +0.0000000000000000e+00 -3.2999959423374241e+00 +2.7161653566196205e-03 +0.0000000000000000e+00 +9.9999631121607391e-01
-3.4000000000000017e+00 +4.6419425930405609e+00 +0.0000000000000000e+00 -3.3999955621679923e+00 +2.7984732076368028e-03 +0.0000000000000000e+00 +9.9999608426618636e-01
-3.5000000000000018e+00 +4.6416586303281360e+00 +0.0000000000000000e+00 -3.4999951589648415e+00 +2.8807810371539321e-03 +0.0000000000000000e+00 +9.9999585054169871e-01
-3.6000000000000019e+00 +4.6413664368338958e+00 +0.0000000000000000e+00 -3.5999947320505123e+00 +2.9630888436962136e-03 +0.0000000000000000e+00 +9.9999561004261606e-01
-3.7000000000000020e+00 +4.6410660125602146e+00 +0.0000000000000000e+00 -3.6999942807475454e+00 +3.0453966257096071e-03 +0.0000000000000000e+00 +9.9999536276894385e-01
-3.8000000000000020e+00 +4.6407573575096261e+00 +0.0000000000000000e+00 -3.7999938043784818e+00 +3.1277043815607897e-03 +0.0000000000000000e+00 +9.9999510872068820e-01
-3.9000000000000021e+00 +4.6404404716848315e+00 +0.0000000000000000e+00 -3.8999933022658637e+00 +3.2100121095371176e-03 +0.0000000000000000e+00 +9.9999484789785598e-01
-4.0000000000000018e+00 +4.6401153550887075e+00 +0.0000000000000000e+00 -3.9999927737322341e+00 +3.2923198078465836e-03 +0.0000000000000000e+00 +9.9999458030045463e-01
-4.1000000000000014e+00 +4.6397820077243130e+00 +0.0000000000000000e+00 -4.0999922181001356e+00 +3.3746274746270892e-03 +0.0000000000000000e+00 +9.9999430592849226e-01
-4.2000000000000011e+00 +4.6394404295948943e+00 +0.0000000000000000e+00 -4.1999916346921138e+00 +3.4569351080489044e-03 +0.0000000000000000e+00 +9.9999402478197752e-01
-4.3000000000000007e+00 +4.6390906207038727e+00 +0.0000000000000000e+00 -4.2999910228307128e+00 +3.5392427064171957e-03 +0.0000000000000000e+00 +9.9999373686091886e-01
-4.4000000000000004e+00 +4.6387325810548319e+00 +0.0000000000000000e+00 -4.3999903818384798e+00 +3.6215502681813927e-03 +0.0000000000000000e+00 +9.9999344216532471e-01
-4.5000000000000000e+00 +4.6383663106515041e+00 +0.0000000000000000e+00 -4.4999897110379603e+00 +3.7038577919352401e-03 +0.0000000000000000e+00 +9.9999314069520329e-01
-4.5999999999999996e+00 +4.6379918094977546e+00 +0.0000000000000000e+00 -4.5999890097517033e+00 +3.7861652764168523e-03 +0.0000000000000000e+00 +9.9999283245056270e-01
-4.6999999999999993e+00 +4.6376090775975678e+00 +0.0000000000000000e+00 -4.6999882773022561e+00 +3.8684727205087707e-03 +0.0000000000000000e+00 +9.9999251743141071e-01
-4.7999999999999989e+00 +4.6372181149550320e+00 +0.0000000000000000e+00 -4.7999875130121685e+00 +3.9507801232380240e-03 +0.0000000000000000e+00 +9.9999219563775466e-01
-4.8999999999999986e+00 +4.6368189215743270e+00 +0.0000000000000000e+00 -4.8999867162039905e+00 +4.0330874837761922e-03 +0.0000000000000000e+00 +9.9999186706960164e-01
-4.9999999999999982e+00 +4.6364114974597062e+00 +0.0000000000000000e+00 -4.9999858862002728e+00 +4.1153948014394726e-03 +0.0000000000000000e+00 +9.9999153172695809e-01
-5.0999999999999979e+00 +4.6359958426154861e+00 +0.0000000000000000e+00 -5.0999850223235663e+00 +4.1977020756887506e-03 +0.0000000000000000e+00 +9.9999118960983013e-01
-5.1999999999999975e+00 +4.6355719570460288e+00 +0.0000000000000000e+00 -5.1999841238964226e+00 +4.2800093061296715e-03 +0.0000000000000000e+00 +9.9999084071822320e-01
-5.2999999999999972e+00 +4.6351398407557287e+00 +0.0000000000000000e+00 -5.2999831902413952e+00 +4.3623164925127161e-03 +0.0000000000000000e+00 +9.9999048505214216e-01
-5.3999999999999968e+00 +4.6346994937489985e+00 +0.0000000000000000e+00 -5.3999822206810357e+00 +4.4446236347332815e-03 +0.0000000000000000e+00 +9.9999012261159104e-01
-5.4999999999999964e+00 +4.6342509160302532e+00 +0.0000000000000000e+00 -5.4999812145378977e+00 +4.5269307328317607e-03 +0.0000000000000000e+00 +9.9998975339657326e-01
-5.5999999999999961e+00 +4.6337941076038973e+00 +0.0000000000000000e+00 -5.5999801711345345e+00 +4.6092377869936287e-03 +0.0000000000000000e+00 +9.9998937740709137e-01
-5.6999999999999957e+00 +4.6333290684743087e+00 +0.0000000000000000e+00 -5.6999790897935005e+00 +4.6915447975495288e-03 +0.0000000000000000e+00 +9.9998899464314694e-01
-5.7999999999999954e+00 +4.6328557986458252e+00 +0.0000000000000000e+00 -5.7999779698373484e+00 +4.7738517649753660e-03 +0.0000000000000000e+00 +9.9998860510474075e-01
-5.8999999999999950e+00 +4.6323742981227305e+00 +0.0000000000000000e+00 -5.8999768105886332e+00 +4.8561586898923986e-03 +0.0000000000000000e+00 +9.9998820879187256e-01
-5.9999999999999947e+00 +4.6318845669092381e+00 +0.0000000000000000e+00 -5.9999756113699076e+00 +4.9384655730673353e-03 +0.0000000000000000e+00 +9.9998780570454093e-01
-6.0999999999999943e+00 +4.6313866050094781e+00 +0.0000000000000000e+00 -6.0999743715037260e+00 +5.0207724154008064e-03 +0.0000000000000000e+00 +9.9998739584274354e-01
-6.1999999999999940e+00 +4.6308804124274889e+00 +0.0000000000000000e+00 -6.1999730903126409e+00 +5.1030792177994191e-03 +0.0000000000000000e+00 +9.9998697920647750e-01
-6.2999999999999936e+00 +4.6303659891672231e+00 +0.0000000000000000e+00 -6.2999717671192057e+00 +5.1853859810476475e-03 +0.0000000000000000e+00 +9.9998655579574003e-01
-6.3999999999999932e+00 +4.6298433352325628e+00 +0.0000000000000000e+00 -6.3999704012459731e+00 +5.2676927057960969e-03 +0.0000000000000000e+00 +9.9998612561052891e-01
-6.4999999999999929e+00 +4.6293124506273298e+00 +0.0000000000000000e+00 -6.4999689920154955e+00 +5.3499993925614142e-03 +0.0000000000000000e+00 +9.9998568865084203e-01
-6.5999999999999925e+00 +4.6287733353553033e+00 +0.0000000000000000e+00 -6.5999675387503256e+00 +5.4323060417261941e-03 +0.0000000000000000e+00 +9.9998524491667784e-01
-6.6999999999999922e+00 +4.6282259894202298e+00 +0.0000000000000000e+00 -6.6999660407730151e+00 +5.5146126535388813e-03 +0.0000000000000000e+00 +9.9998479440803523e-01
-6.7999999999999918e+00 +4.6276704128258368e+00 +0.0000000000000000e+00 -6.7999644974061164e+00 +5.5969192281136691e-03 +0.0000000000000000e+00 +9.9998433712491364e-01
-6.8999999999999915e+00 +4.6271066055758485e+00 +0.0000000000000000e+00 -6.8999629079721814e+00 +5.6792257654303888e-03 +0.0000000000000000e+00 +9.9998387306731318e-01
-6.9999999999999911e+00 +4.6265345676739971e+00 +0.0000000000000000e+00 -6.9999612717937625e+00 +5.7615322653344027e-03 +0.0000000000000000e+00 +9.9998340223523441e-01
-7.0999999999999908e+00 +4.6259542991240377e+00 +0.0000000000000000e+00 -7.0999595881934123e+00 +5.8438387275364847e-03 +0.0000000000000000e+00 +9.9998292462867866e-01
-7.1999999999999904e+00 +4.6253657999297602e+00 +0.0000000000000000e+00 -7.1999578564936826e+00 +5.9261451516127014e-03 +0.0000000000000000e+00 +9.9998244024764815e-01
-7.2999999999999901e+00 +4.6247690700950042e+00 +0.0000000000000000e+00 -7.2999560760171258e+00 +6.0084515370042880e-03 +0.0000000000000000e+00 +9.9998194909214566e-01
-7.3999999999999897e+00 +4.6241641096236714e+00 +0.0000000000000000e+00 -7.3999542460862955e+00 +6.0907578830175207e-03 +0.0000000000000000e+00 +9.9998145116217507e-01
-7.4999999999999893e+00 +4.6235509185197401e+00 +0.0000000000000000e+00 -7.4999523660237450e+00 +6.1730641888235790e-03 +0.0000000000000000e+00 +9.9998094645774116e-01
-7.5999999999999890e+00 +4.6229294967872789e+00 +0.0000000000000000e+00 -7.5999504351520279e+00 +6.2553704534584146e-03 +0.0000000000000000e+00 +9.9998043497884959e-01
-7.6999999999999886e+00 +4.6222998444304579e+00 +0.0000000000000000e+00 -7.6999484527936994e+00 +6.3376766758226032e-03 +0.0000000000000000e+00 +9.9997991672550701e-01
-7.7999999999999883e+00 +4.6216619614535643e+00 +0.0000000000000000e+00 -7.7999464182713147e+00 +6.4199828546812046e-03 +0.0000000000000000e+00 +9.9997939169772132e-01
-7.8999999999999879e+00 +4.6210158478610168e+00 +0.0000000000000000e+00 -7.8999443309074291e+00 +6.5022889886636069e-03 +0.0000000000000000e+00 +9.9997885989550150e-01
-7.9999999999999876e+00 +4.6203615036573771e+00 +0.0000000000000000e+00 -7.9999421900246004e+00 +6.5845950762633762e-03 +0.0000000000000000e+00 +9.9997832131885778e-01
-8.0999999999999872e+00 +4.6196989288473640e+00 +0.0000000000000000e+00 -8.0999399949453874e+00 +6.6669011158466632e-03 +0.0000000000000000e+00 +9.9997777596780146e-01
-8.1999999999999869e+00 +4.6190281234358634e+00 +0.0000000000000000e+00 -8.1999377449923472e+00 +6.7492071057464690e-03 +0.0000000000000000e+00 +9.9997722384234466e-01
-8.2999999999999865e+00 +4.6183490874279247e+00 +0.0000000000000000e+00 -8.2999354394880420e+00 +6.8315130443571256e-03 +0.0000000000000000e+00 +9.9997666494249937e-01
-8.3999999999999861e+00 +4.6176618208287534e+00 +0.0000000000000000e+00 -8.3999330777550334e+00 +6.9138189301429153e-03 +0.0000000000000000e+00 +9.9997609926827757e-01
-8.4999999999999858e+00 +4.6169663236437062e+00 +0.0000000000000000e+00 -8.4999306591158845e+00 +6.9961247616380827e-03 +0.0000000000000000e+00 +9.9997552681969093e-01
-8.5999999999999854e+00 +4.6162625958782826e+00 +0.0000000000000000e+00 -8.5999281828931586e+00 +7.0784305374468528e-03 +0.0000000000000000e+00 +9.9997494759675121e-01
-8.6999999999999851e+00 +4.6155506375381172e+00 +0.0000000000000000e+00 -8.6999256484094225e+00 +7.1607362562434466e-03 +0.0000000000000000e+00 +9.9997436159946984e-01
-8.7999999999999847e+00 +4.6148304486289762e+00 +0.0000000000000000e+00 -8.7999230549872411e+00 +7.2430419167720996e-03 +0.0000000000000000e+00 +9.9997376882785816e-01
-8.8999999999999844e+00 +4.6141020291567454e+00 +0.0000000000000000e+00 -8.8999204019491831e+00 +7.3253475178470815e-03 +0.0000000000000000e+00 +9.9997316928192703e-01
-8.9999999999999840e+00 +4.6133653791274263e+00 +0.0000000000000000e+00 -8.9999176886178169e+00 +7.4076530583527143e-03 +0.0000000000000000e+00 +9.9997256296168735e-01
-9.0999999999999837e+00 +4.6126204985471286e+00 +0.0000000000000000e+00 -9.0999149143157112e+00 +7.4899585372433953e-03 +0.0000000000000000e+00 +9.9997194986714955e-01
-9.1999999999999833e+00 +4.6118673874220635e+00 +0.0000000000000000e+00 -9.1999120783654380e+00 +7.5722639535436183e-03 +0.0000000000000000e+00 +9.9997132999832372e-01
-9.2999999999999829e+00 +4.6111060457585360e+00 +0.0000000000000000e+00 -9.2999091800895677e+00 +7.6545693063479964e-03 +0.0000000000000000e+00 +9.9997070335521976e-01
-9.3999999999999826e+00 +4.6103364735629384e+00 +0.0000000000000000e+00 -9.3999062188106741e+00 +7.7368745948212863e-03 +0.0000000000000000e+00 +9.9997006993784698e-01
-9.4999999999999822e+00 +4.6095586708417420e+00 +0.0000000000000000e+00 -9.4999031938513294e+00 +7.8191798181984143e-03 +0.0000000000000000e+00 +9.9996942974621439e-01
-9.5999999999999819e+00 +4.6087726376014917e+00 +0.0000000000000000e+00 -9.5999001045341092e+00 +7.9014849757845038e-03 +0.0000000000000000e+00 +9.9996878278033063e-01
-9.6999999999999815e+00 +4.6079783738487992e+00 +0.0000000000000000e+00 -9.6998969501815875e+00 +7.9837900669548975e-03 +0.0000000000000000e+00 +9.9996812904020371e-01
-9.7999999999999812e+00 +4.6071758795903337e+00 +0.0000000000000000e+00 -9.7998937301163416e+00 +8.0660950911551899e-03 +0.0000000000000000e+00 +9.9996746852584117e-01
-9.8999999999999808e+00 +4.6063651548328171e+00 +0.0000000000000000e+00 -9.8998904436609472e+00 +8.1484000479012560e-03 +0.0000000000000000e+00 +9.9996680123725012e-01
-9.9999999999999805e+00 +4.6055461995830163e+00 +0.0000000000000000e+00 -9.9998870901379835e+00 +8.2307049367792793e-03 +0.0000000000000000e+00 +9.9996612717443700e-01
-1.0099999999999980e+01 +4.6047190138477356e+00 +0.0000000000000000e+00 -1.0099883668870028e+01 +8.3130097574415016e-03 +0.0000000000000000e+00 +9.9996544633740791e-01
-1.0199999999999980e+01 +4.6038835976338133e+00 +0.0000000000000000e+00 -1.0199880179179658e+01 +8.3953145095589394e-03 +0.0000000000000000e+00 +9.9996475872616852e-01
-1.0299999999999979e+01 +4.6030399509481210e+00 +0.0000000000000000e+00 -1.0299876620389455e+01 +8.4776191927739865e-03 +0.0000000000000000e+00 +9.9996406434072482e-01
-1.0399999999999979e+01 +4.6021880737975680e+00 +0.0000000000000000e+00 -1.0399872991821997e+01 +8.5599238066961080e-03 +0.0000000000000000e+00 +9.9996336318108303e-01
-1.0499999999999979e+01 +4.6013279661891051e+00 +0.0000000000000000e+00 -1.0499869292799865e+01 +8.6422283509018528e-03 +0.0000000000000000e+00 +9.9996265524724970e-01
-1.0599999999999978e+01 +4.6004596281297268e+00 +0.0000000000000000e+00 -1.0599865522645640e+01 +8.7245328249348757e-03 +0.0000000000000000e+00 +9.9996194053923160e-01
-1.0699999999999978e+01 +4.5995830596264735e+00 +0.0000000000000000e+00 -1.0699861680681904e+01 +8.8068372283059554e-03 +0.0000000000000000e+00 +9.9996121905703583e-01
-1.0799999999999978e+01 +4.5986982606864384e+00 +0.0000000000000000e+00 -1.0799857766231241e+01 +8.8891415604930128e-03 +0.0000000000000000e+00 +9.9996049080066984e-01
-1.0899999999999977e+01 +4.5978052313167668e+00 +0.0000000000000000e+00 -1.0899853778616233e+01 +8.9714458209411325e-03 +0.0000000000000000e+00 +9.9995975577014140e-01
-1.0999999999999977e+01 +4.5969039715246609e+00 +0.0000000000000000e+00 -1.0999849717159464e+01 +9.0537500090625833e-03 +0.0000000000000000e+00 +9.9995901396545861e-01
-1.1099999999999977e+01 +4.5959944813173852e+00 +0.0000000000000000e+00 -1.1099845581183519e+01 +9.1360541242368372e-03 +0.0000000000000000e+00 +9.9995826538662991e-01
-1.1199999999999976e+01 +4.5950767607022671e+00 +0.0000000000000000e+00 -1.1199841370010985e+01 +9.2183581658105938e-03 +0.0000000000000000e+00 +9.9995751003366418e-01
-1.1299999999999976e+01 +4.5941508096866999e+00 +0.0000000000000000e+00 -1.1299837082964448e+01 +9.3006621330977979e-03 +0.0000000000000000e+00 +9.9995674790657052e-01
-1.1399999999999975e+01 +4.5932166282781477e+00 +0.0000000000000000e+00 -1.1399832719366495e+01 +9.3829660253796666e-03 +0.0000000000000000e+00 +9.9995597900535860e-01
-1.1499999999999975e+01 +4.5922742164841486e+00 +0.0000000000000000e+00 -1.1499828278539717e+01 +9.4652698419047110e-03 +0.0000000000000000e+00 +9.9995520333003840e-01
-1.1599999999999975e+01 +4.5913235743123177e+00 +0.0000000000000000e+00 -1.1599823759806700e+01 +9.5475735818887561e-03 +0.0000000000000000e+00 +9.9995442088062036e-01
-1.1699999999999974e+01 +4.5903647017703495e+00 +0.0000000000000000e+00 -1.1699819162490037e+01 +9.6298772445149710e-03 +0.0000000000000000e+00 +9.9995363165711537e-01
