# trajectory
# s[mm] rx[mm] ry[mm] rz[mm] px[rad] py[rad] pz[rad]
0.0000000000000000e+00 +4.6467000000000001e+00 +0.0000000000000000e+00 +0.0000000000000000e+00 +0.0000000000000000e+00 +0.0000000000000000e+00 +1.0000000000000000e+00
-1.0000000000000001e-01 +4.6466956841274527e+00 +0.0000000000000000e+00 -9.9999999875821630e-02 +8.6317448847779779e-05 +0.0000000000000000e+00 +9.9999999627464897e-01
-2.0000000000000001e-01 +4.6466827365106980e+00 +0.0000000000000000e+00 -1.9999999900657314e-01 +1.7263488367125931e-04 +0.0000000000000000e+00 +9.9999998509859833e-01
-3.0000000000000004e-01 +4.6466611571512786e+00 +0.0000000000000000e+00 -2.9999999664718480e-01 +2.5895230169946636e-04 +0.0000000000000000e+00 +9.9999996647185219e-01
-4.0000000000000002e-01 +4.6466309460510056e+00 +0.0000000000000000e+00 -3.9999999205258724e-01 +3.4526970031999117e-04 +0.0000000000000000e+00 +9.9999994039441531e-01
-5.0000000000000000e-01 +4.6465921032119439e+00 +0.0000000000000000e+00 -4.9999998447771166e-01 +4.3158707707896733e-04 +0.0000000000000000e+00 +9.9999990686629314e-01
-5.9999999999999998e-01 +4.6465446286363958e+00 +0.0000000000000000e+00 -5.9999997317748988e-01 +5.1790442968105790e-04 +0.0000000000000000e+00 +9.9999986588749190e-01
-6.9999999999999996e-01 +4.6464885223268846e+00 +0.0000000000000000e+00 -6.9999995740685428e-01 +6.0422175598944514e-04 +0.0000000000000000e+00 +9.9999981745801814e-01
-7.9999999999999993e-01 +4.6464237842861404e+00 +0.0000000000000000e+00 -7.9999993642073797e-01 +6.9053905402582526e-04 +0.0000000000000000e+00 +9.9999976157787906e-01
-8.9999999999999991e-01 +4.6463504145170829e+00 +0.0000000000000000e+00 -8.9999990947407482e-01 +7.7685632197040761e-04 +0.0000000000000000e+00 +9.9999969824708201e-01
-9.9999999999999989e-01 +4.6462684130228054e+00 +0.0000000000000000e+00 -9.9999987582179939e-01 +8.6317355816191801e-04 +0.0000000000000000e+00 +9.9999962746563487e-01
-1.0999999999999999e+00 +4.6461777798065595e+00 +0.0000000000000000e+00 -1.0999998347188471e+00 +9.4949076109760670e-04 +0.0000000000000000e+00 +9.9999954923354573e-01
-1.2000000000000000e+00 +4.6460785148717392e+00 +0.0000000000000000e+00 -1.1999997854201541e+00 +1.0358079294332610e-03 +0.0000000000000000e+00 +9.9999946355082281e-01
-1.3000000000000000e+00 +4.6459706182218659e+00 +0.0000000000000000e+00 -1.2999997271806574e+00 +1.1221250619832216e-03 +0.0000000000000000e+00 +9.9999937041747444e-01
-1.4000000000000001e+00 +4.6458540898605705e+00 +0.0000000000000000e+00 -1.3999996592552950e+00 +1.2084421577204048e-03 +0.0000000000000000e+00 +9.9999926983350917e-01
-1.5000000000000002e+00 +4.6457289297915780e+00 +0.0000000000000000e+00 -1.4999995808990056e+00 +1.2947592157763273e-03 +0.0000000000000000e+00 +9.9999916179893533e-01
-1.6000000000000003e+00 +4.6455951380186944e+00 +0.0000000000000000e+00 -1.5999994913667288e+00 +1.3810762354411368e-03 +0.0000000000000000e+00 +9.9999904631376124e-01
-1.7000000000000004e+00 +4.6454527145457876e+00 +0.0000000000000000e+00 -1.6999993899134049e+00 +1.4673932161636469e-03 +0.0000000000000000e+00 +9.9999892337799512e-01
-1.8000000000000005e+00 +4.6453016593767726e+00 +0.0000000000000000e+00 -1.7999992757939751e+00 +1.5537101575513754e-03 +0.0000000000000000e+00 +9.9999879299164485e-01
-1.9000000000000006e+00 +4.6451419725155967e+00 +0.0000000000000000e+00 -1.8999991482633813e+00 +1.6400270593705884e-03 +0.0000000000000000e+00 +9.9999865515471809e-01
-2.0000000000000004e+00 +4.6449736539662210e+00 +0.0000000000000000e+00 -1.9999990065765665e+00 +1.7263439215463483e-03 +0.0000000000000000e+00 +9.9999850986722216e-01
-2.1000000000000005e+00 +4.6447967037326068e+00 +0.0000000000000000e+00 -2.0999988499884736e+00 +1.8126607441594316e-03 +0.0000000000000000e+00 +9.9999835712916396e-01
-2.2000000000000006e+00 +4.6446111218187012e+00 +0.0000000000000000e+00 -2.1999986777540474e+00 +1.8989775274119061e-03 +0.0000000000000000e+00 +9.9999819694054981e-01
-2.3000000000000007e+00 +4.6444169082284263e+00 +0.0000000000000000e+00 -2.2999984891282321e+00 +1.9852942715926861e-03 +0.0000000000000000e+00 +9.9999802930138593e-01
-2.4000000000000008e+00 +4.6442140629656725e+00 +0.0000000000000000e+00 -2.3999982833659730e+00 +2.0716109770744181e-03 +0.0000000000000000e+00 +9.9999785421167775e-01
-2.5000000000000009e+00 +4.6440025860342864e+00 +0.0000000000000000e+00 -2.4999980597222162e+00 +2.1579276443134962e-03 +0.0000000000000000e+00 +9.9999767167143050e-01
-2.6000000000000010e+00 +4.6437824774380667e+00 +0.0000000000000000e+00 -2.5999978174519081e+00 +2.2442442738500800e-03 +0.0000000000000000e+00 +9.9999748168064884e-01
-2.7000000000000011e+00 +4.6435537371807527e+00 +0.0000000000000000e+00 -2.6999975558099951e+00 +2.3305608663081109e-03 +0.0000000000000000e+00 +9.9999728423933665e-01
-2.8000000000000012e+00 +4.6433163652660179e+00 +0.0000000000000000e+00 -2.7999972740514245e+00 +2.4168774223953266e-03 +0.0000000000000000e+00 +9.9999707934749760e-01
-2.9000000000000012e+00 +4.6430703616974602e+00 +0.0000000000000000e+00 -2.8999969714311438e+00 +2.5031939429032762e-03 +0.0000000000000000e+00 +9.9999686700513446e-01
-3.0000000000000013e+00 +4.6428157264785943e+00 +0.0000000000000000e+00 -2.9999966472041004e+00 +2.5895104287073350e-03 +0.0000000000000000e+00 +9.9999664721224935e-01
-3.1000000000000014e+00 +4.6425524596128440e+00 +0.0000000000000000e+00 -3.0999963006252429e+00 +2.6758268807667174e-03 +0.0000000000000000e+00 +9.9999641996884392e-01
-3.2000000000000015e+00 +4.6422805611035312e+00 +0.0000000000000000e+00 -3.1999959309495187e+00 +2.7621433001244911e-03 +0.0000000000000000e+00 +9.9999618527491885e-01
-3.3000000000000016e+00 +4.6420000309538709e+00 +0.0000000000000000e+00 -3.2999955374318759e+00 +2.8484596879075883e-03 +0.0000000000000000e+00 +9.9999594313047424e-01
-3.4000000000000017e+00 +4.6417108691669613e+00 +0.0000000000000000e+00 -3.3999951193272628e+00 +2.9347760453268174e-03 +0.0000000000000000e+00 +9.9999569353550921e-01
-3.5000000000000018e+00 +4.6414130757457741e+00 +0.0000000000000000e+00 -3.4999946758906271e+00 +3.0210923736768754e-03 +0.0000000000000000e+00 +9.9999543649002220e-01
-3.6000000000000019e+00 +4.6411066506931489e+00 +0.0000000000000000e+00 -3.5999942063769166e+00 +3.1074086743363579e-03 +0.0000000000000000e+00 +9.9999517199401067e-01
-3.7000000000000020e+00 +4.6407915940117812e+00 +0.0000000000000000e+00 -3.6999937100410785e+00 +3.1937249487677681e-03 +0.0000000000000000e+00 +9.9999490004747116e-01
-3.8000000000000020e+00 +4.6404679057042175e+00 +0.0000000000000000e+00 -3.7999931861380598e+00 +3.2800411985175275e-03 +0.0000000000000000e+00 +9.9999462065039946e-01
-3.9000000000000021e+00 +4.6401355857728461e+00 +0.0000000000000000e+00 -3.8999926339228073e+00 +3.3663574252159843e-03 +0.0000000000000000e+00 +9.9999433380279013e-01
-4.0000000000000018e+00 +4.6397946342198857e+00 +0.0000000000000000e+00 -3.9999920526502666e+00 +3.4526736305774209e-03 +0.0000000000000000e+00 +9.9999403950463683e-01
-4.1000000000000014e+00 +4.6394450510473817e+00 +0.0000000000000000e+00 -4.0999914415753826e+00 +3.5389898163862409e-03 +0.0000000000000000e+00 +9.9999373775593214e-01
-4.2000000000000011e+00 +4.6390868362572029e+00 +0.0000000000000000e+00 -4.1999907999531008e+00 +3.6253059843449052e-03 +0.0000000000000000e+00 +9.9999342855666828e-01
-4.3000000000000007e+00 +4.6387199898510580e+00 +0.0000000000000000e+00 -4.2999901270383640e+00 +3.7116221359218028e-03 +0.0000000000000000e+00 +9.9999311190683748e-01
-4.4000000000000004e+00 +4.6383445118305229e+00 +0.0000000000000000e+00 -4.3999894220861160e+00 +3.7979382723373613e-03 +0.0000000000000000e+00 +9.9999278780643219e-01
-4.5000000000000000e+00 +4.6379604021970628e+00 +0.0000000000000000e+00 -4.4999886843512984e+00 +3.8842543945639806e-03 +0.0000000000000000e+00 +9.9999245625544542e-01
-4.5999999999999996e+00 +4.6375676609520582e+00 +0.0000000000000000e+00 -4.5999879130888521e+00 +3.9705705033259630e-03 +0.0000000000000000e+00 +9.9999211725387049e-01
-4.6999999999999993e+00 +4.6371662880968296e+00 +0.0000000000000000e+00 -4.6999871075537190e+00 +4.0568865990994385e-03 +0.0000000000000000e+00 +9.9999177080170143e-01
-4.7999999999999989e+00 +4.6367562836326632e+00 +0.0000000000000000e+00 -4.7999862670008389e+00 +4.1432026821122845e-03 +0.0000000000000000e+00 +9.9999141689893289e-01
-4.8999999999999986e+00 +4.6363376475608336e+00 +0.0000000000000000e+00 -4.8999853906851518e+00 +4.2295187523440428e-03 +0.0000000000000000e+00 +9.9999105554556034e-01
-4.9999999999999982e+00 +4.6359103798826293e+00 +0.0000000000000000e+00 -4.9999844778615969e+00 +4.3158348095258311e-03 +0.0000000000000000e+00 +9.9999068674158020e-01
-5.0999999999999979e+00 +4.6354744805993802e+00 +0.0000000000000000e+00 -5.0999835277851142e+00 +4.4021508531402517e-03 +0.0000000000000000e+00 +9.9999031048698994e-01
-5.1999999999999975e+00 +4.6350299497124787e+00 +0.0000000000000000e+00 -5.1999825397106418e+00 +4.4884668824212957e-03 +0.0000000000000000e+00 +9.9998992678178800e-01
-5.2999999999999972e+00 +4.6345767872234074e+00 +0.0000000000000000e+00 -5.2999815128931180e+00 +4.5747828963542386e-03 +0.0000000000000000e+00 +9.9998953562597426e-01
-5.3999999999999968e+00 +4.6341149931337613e+00 +0.0000000000000000e+00 -5.3999804465874828e+00 +4.6610988936755396e-03 +0.0000000000000000e+00 +9.9998913701954972e-01
-5.4999999999999964e+00 +4.6336445674452760e+00 +0.0000000000000000e+00 -5.4999793400486743e+00 +4.7474148728727282e-03 +0.0000000000000000e+00 +9.9998873096251706e-01
-5.5999999999999961e+00 +4.6331655101598495e+00 +0.0000000000000000e+00 -5.5999781925316325e+00 +4.8337308321842916e-03 +0.0000000000000000e+00 +9.9998831745488026e-01
-5.6999999999999957e+00 +4.6326778212795690e+00 +0.0000000000000000e+00 -5.6999770032912975e+00 +4.9200467695995585e-03 +0.0000000000000000e+00 +9.9998789649664532e-01
-5.7999999999999954e+00 +4.6321815008067349e+00 +0.0000000000000000e+00 -5.7999757715826092e+00 +5.0063626828585747e-03 +0.0000000000000000e+00 +9.9998746808781969e-01
-5.8999999999999950e+00 +4.6316765487438856e+00 +0.0000000000000000e+00 -5.8999744966605085e+00 +5.0926785694519758e-03 +0.0000000000000000e+00 +9.9998703222841279e-01
-5.9999999999999947e+00 +4.6311629650938242e+00 +0.0000000000000000e+00 -5.9999731777799390e+00 +5.1789944266208594e-03 +0.0000000000000000e+00 +9.9998658891843617e-01
-6.0999999999999943e+00 +4.6306407498596416e+00 +0.0000000000000000e+00 -6.0999718141958441e+00 +5.2653102513660014e-03 +0.0000000000000000e+00 +9.9998613815790327e-01
-6.1999999999999940e+00 +4.6301099030447359e+00 +0.0000000000000000e+00 -6.1999704051631683e+00 +5.3516260405507181e-03 +0.0000000000000000e+00 +9.9998567994682930e-01
-6.2999999999999936e+00 +4.6295704246528224e+00 +0.0000000000000000e+00 -6.2999689499368587e+00 +5.4379417910039177e-03 +0.0000000000000000e+00 +9.9998521428523035e-01
-6.3999999999999932e+00 +4.6290223146879326e+00 +0.0000000000000000e+00 -6.3999674477718642e+00 +5.5242574995295691e-03 +0.0000000000000000e+00 +9.9998474117312375e-01
-6.4999999999999929e+00 +4.6284655731544211e+00 +0.0000000000000000e+00 -6.4999658979231345e+00 +5.6105731629068033e-03 +0.0000000000000000e+00 +9.9998426061052781e-01
-6.5999999999999925e+00 +4.6279002000569642e+00 +0.0000000000000000e+00 -6.5999642996456211e+00 +5.6968887778900256e-03 +0.0000000000000000e+00 +9.9998377259746207e-01
-6.6999999999999922e+00 +4.6273261954005651e+00 +0.0000000000000000e+00 -6.6999626521942783e+00 +5.7832043412090299e-03 +0.0000000000000000e+00 +9.9998327713394697e-01
-6.7999999999999918e+00 +4.6267435591905546e+00 +0.0000000000000000e+00 -6.7999609548240629e+00 +5.8695198495691174e-03 +0.0000000000000000e+00 +9.9998277422000414e-01
-6.8999999999999915e+00 +4.6261522914325939e+00 +0.0000000000000000e+00 -6.8999592067899327e+00 +5.9558352996512244e-03 +0.0000000000000000e+00 +9.9998226385565647e-01
-6.9999999999999911e+00 +4.6255523921326782e+00 +0.0000000000000000e+00 -6.9999574073468480e+00 +6.0421506881120513e-03 +0.0000000000000000e+00 +9.9998174604092771e-01
-7.0999999999999908e+00 +4.6249438612971376e+00 +0.0000000000000000e+00 -7.0999555557497729e+00 +6.1284660115841997e-03 +0.0000000000000000e+00 +9.9998122077584295e-01
-7.1999999999999904e+00 +4.6243266989326406e+00 +0.0000000000000000e+00 -7.1999536512536721e+00 +6.2147812666763147e-03 +0.0000000000000000e+00 +9.9998068806042828e-01
-7.2999999999999901e+00 +4.6237009050461957e+00 +0.0000000000000000e+00 -7.2999516931135151e+00 +6.3010964499732322e-03 +0.0000000000000000e+00 +9.9998014789471112e-01
-7.3999999999999897e+00 +4.6230664796451535e+00 +0.0000000000000000e+00 -7.3999496805842719e+00 +6.3874115580361303e-03 +0.0000000000000000e+00 +9.9997960027871990e-01
-7.4999999999999893e+00 +4.6224234227372110e+00 +0.0000000000000000e+00 -7.4999476129209173e+00 +6.4737265874026889e-03 +0.0000000000000000e+00 +9.9997904521248426e-01
-7.5999999999999890e+00 +4.6217717343304123e+00 +0.0000000000000000e+00 -7.5999454893784284e+00 +6.5600415345872529e-03 +0.0000000000000000e+00 +9.9997848269603506e-01
-7.6999999999999886e+00 +4.6211114144331500e+00 +0.0000000000000000e+00 -7.6999433092117853e+00 +6.6463563960809996e-03 +0.0000000000000000e+00 +9.9997791272940439e-01
-7.7999999999999883e+00 +4.6204424630541698e+00 +0.0000000000000000e+00 -7.7999410716759714e+00 +6.7326711683521161e-03 +0.0000000000000000e+00 +9.9997733531262545e-01
-7.8999999999999879e+00 +4.6197648802025721e+00 +0.0000000000000000e+00 -7.8999387760259738e+00 +6.8189858478459762e-03 +0.0000000000000000e+00 +9.9997675044573264e-01
-7.9999999999999876e+00 +4.6190786658878125e+00 +0.0000000000000000e+00 -7.9999364215167823e+00 +6.9053004309853278e-03 +0.0000000000000000e+00 +9.9997615812876162e-01
-8.0999999999999872e+00 +4.6183838201197061e+00 +0.0000000000000000e+00 -8.0999340074033910e+00 +6.9916149141851383e-03 +0.0000000000000000e+00 +9.9997555836174912e-01
-8.1999999999999869e+00 +4.6176803429084208e+00 +0.0000000000000000e+00 -8.1999315329407985e+00 +7.0779292940142523e-03 +0.0000000000000000e+00 +9.9997495114473200e-01
-8.2999999999999865e+00 +4.6169682342644531e+00 +0.0000000000000000e+00 -8.2999289973840060e+00 +7.1642435673570613e-03 +0.0000000000000000e+00 +9.9997433647774570e-01
-8.3999999999999861e+00 +4.6162474941985927e+00 +0.0000000000000000e+00 -8.3999263999880167e+00 +7.2505577314280548e-03 +0.0000000000000000e+00 +9.9997371436082427e-01
-8.4999999999999858e+00 +4.6155181227218920e+00 +0.0000000000000000e+00 -8.4999237400078407e+00 +7.3368717837716231e-03 +0.0000000000000000e+00 +9.9997308479400016e-01
-8.5999999999999854e+00 +4.6147801198456335e+00 +0.0000000000000000e+00 -8.5999210166984881e+00 +7.4231857222618576e-03 +0.0000000000000000e+00 +9.9997244777730399e-01
-8.6999999999999851e+00 +4.6140334855812952e+00 +0.0000000000000000e+00 -8.6999182293149726e+00 +7.5094995451023402e-03 +0.0000000000000000e+00 +9.9997180331076452e-01
-8.7999999999999847e+00 +4.6132782199405176e+00 +0.0000000000000000e+00 -8.7999153771123133e+00 +7.5958132508259302e-03 +0.0000000000000000e+00 +9.9997115139440840e-01
-8.8999999999999844e+00 +4.6125143229350725e+00 +0.0000000000000000e+00 -8.8999124593455274e+00 +7.6821268382945397e-03 +0.0000000000000000e+00 +9.9997049202826016e-01
-8.9999999999999840e+00 +4.6117417945768278e+00 +0.0000000000000000e+00 -8.9999094752696394e+00 +7.7684403066989056e-03 +0.0000000000000000e+00 +9.9996982521234190e-01
-9.0999999999999837e+00 +4.6109606348777179e+00 +0.0000000000000000e+00 -9.0999064241396717e+00 +7.8547536555583532e-03 +0.0000000000000000e+00 +9.9996915094667338e-01
-9.1999999999999833e+00 +4.6101708438497067e+00 +0.0000000000000000e+00 -9.1999033052106505e+00 +7.9410668847205521e-03 +0.0000000000000000e+00 +9.9996846923127169e-01
-9.2999999999999829e+00 +4.6093724215047578e+00 +0.0000000000000000e+00 -9.2999001177376019e+00 +8.0273799943612681e-03 +0.0000000000000000e+00 +9.9996778006615117e-01
-9.3999999999999826e+00 +4.6085653678548013e+00 +0.0000000000000000e+00 -9.3998968609755558e+00 +8.1136929849841034e-03 +0.0000000000000000e+00 +9.9996708345132335e-01
-9.4999999999999822e+00 +4.6077496829117006e+00 +0.0000000000000000e+00 -9.4998935341795434e+00 +8.2000058574202353e-03 +0.0000000000000000e+00 +9.9996637938679656e-01
-9.5999999999999819e+00 +4.6069253666872187e+00 +0.0000000000000000e+00 -9.5998901366045928e+00 +8.2863186128281432e-03 +0.0000000000000000e+00 +9.9996566787257612e-01
-9.6999999999999815e+00 +4.6060924191929873e+00 +0.0000000000000000e+00 -9.6998866675057354e+00 +8.3726312526933317e-03 +0.0000000000000000e+00 +9.9996494890866394e-01
-9.7999999999999812e+00 +4.6052508404404717e+00 +0.0000000000000000e+00 -9.7998831261380026e+00 +8.4589437788280403e-03 +0.0000000000000000e+00 +9.9996422249505856e-01
-9.8999999999999808e+00 +4.6044006304409413e+00 +0.0000000000000000e+00 -9.8998795117564242e+00 +8.5452561933709557e-03 +0.0000000000000000e+00 +9.9996348863175499e-01
-9.9999999999999805e+00 +4.6035417892054351e+00 +0.0000000000000000e+00 -9.9998758236160299e+00 +8.6315684987869103e-03 +0.0000000000000000e+00 +9.9996274731874446e-01
-1.0099999999999980e+01 +4.6026743167447295e+00 +0.0000000000000000e+00 -1.0099872060971849e+01 +8.7178806978484413e-03 +0.0000000000000000e+00 +9.9996199855601442e-01
-1.0199999999999980e+01 +4.6017982130693147e+00 +0.0000000000000000e+00 -1.0199868223078909e+01 +8.8041927934353753e-03 +0.0000000000000000e+00 +9.9996124234355033e-01
-1.0299999999999979e+01 +4.6009134781893986e+00 +0.0000000000000000e+00 -1.0299864309192234e+01 +8.8905047883342195e-03 +0.0000000000000000e+00 +9.9996047868133731e-01
-1.0399999999999979e+01 +4.6000201121149145e+00 +0.0000000000000000e+00 -1.0399860318566850e+01 +8.9768166852201622e-03 +0.0000000000000000e+00 +9.9995970756936026e-01
-1.0499999999999979e+01 +4.5991181148555356e+00 +0.0000000000000000e+00 -1.0499856250457780e+01 +9.0631284866574055e-03 +0.0000000000000000e+00 +9.9995892900760419e-01
-1.0599999999999978e+01 +4.5982074864206828e+00 +0.0000000000000000e+00 -1.0599852104120044e+01 +9.1494401950995129e-03 +0.0000000000000000e+00 +9.9995814299605401e-01
-1.0699999999999978e+01 +4.5972882268195372e+00 +0.0000000000000000e+00 -1.0699847878808663e+01 +9.2357518128897611e-03 +0.0000000000000000e+00 +9.9995734953469451e-01
-1.0799999999999978e+01 +4.5963603360610517e+00 +0.0000000000000000e+00 -1.0799843573778656e+01 +9.3220633422615041e-03 +0.0000000000000000e+00 +9.9995654862351058e-01
-1.0899999999999977e+01 +4.5954238141539614e+00 +0.0000000000000000e+00 -1.0899839188285037e+01 +9.4083747853385413e-03 +0.0000000000000000e+00 +9.9995574026248735e-01
-1.0999999999999977e+01 +4.5944786611067938e+00 +0.0000000000000000e+00 -1.0999834721582824e+01 +9.4946861441355043e-03 +0.0000000000000000e+00 +9.9995492445160983e-01
-1.1099999999999977e+01 +4.5935248769278800e+00 +0.0000000000000000e+00 -1.1099830172927030e+01 +9.5809974205582418e-03 +0.0000000000000000e+00 +9.9995410119086348e-01
-1.1199999999999976e+01 +4.5925624616253673e+00 +0.0000000000000000e+00 -1.1199825541572666e+01 +9.6673086164042240e-03 +0.0000000000000000e+00 +9.9995327048023375e-01
-1.1299999999999976e+01 +4.5915914152072279e+00 +0.0000000000000000e+00 -1.1299820826774745e+01 +9.7536197333629466e-03 +0.0000000000000000e+00 +9.9995243231970654e-01
-1.1399999999999975e+01 +4.5906117376812707e+00 +0.0000000000000000e+00 -1.1399816027788276e+01 +9.8399307730163543e-03 +0.0000000000000000e+00 +9.9995158670926798e-01
-1.1499999999999975e+01 +4.5896234290551519e+00 +0.0000000000000000e+00 -1.1499811143868268e+01 +9.9262417368392621e-03 +0.0000000000000000e+00 +9.9995073364890441e-01
-1.1599999999999975e+01 +4.5886264893363844e+00 +0.0000000000000000e+00 -1.1599806174269727e+01 +1.0012552626199796e-02 +0.0000000000000000e+00 +9.9994987313860284e-01
-1.1699999999999974e+01 +4.5876209185323518e+00 +0.0000000000000000e+00 -1.1699801118247658e+01 +1.0098863442359839e-02 +0.0000000000000000e+00 +9.9994900517835050e-01
