# field on trajectory
# s[mm] rx[mm] ry[mm] rz[mm] bx[T] by[T] bz[T]
0.0000000000000000e+00 +4.6467000000000001e+00 +0.0000000000000000e+00 +0.0000000000000000e+00 +1.4162098989457885e-02 -2.6015354763751952e-01 +1.7904327354056027e-03
-1.0000000000000001e-01 +4.6466974002340455e+00 +0.0000000000000000e+00 -9.9999999954941451e-02 +1.4162090195065995e-02 -2.6015356901484488e-01 +1.7904560186491089e-03
-2.0000000000000001e-01 +4.6466896009358889e+00 +0.0000000000000000e+00 -1.9999999963953158e-01 +1.4162078773486667e-02 -2.6015359458695586e-01 +1.7904810491600426e-03
-3.0000000000000004e-01 +4.6466766021050416e+00 +0.0000000000000000e+00 -2.9999999878341893e-01 +1.4162065134564149e-02 -2.6015362377150070e-01 +1.7905075896209807e-03
-4.0000000000000002e-01 +4.6466584037409557e+00 +0.0000000000000000e+00 -3.9999999711625200e-01 +1.4162049688163715e-02 -2.6015365598615364e-01 +1.7905354027339406e-03
-5.0000000000000000e-01 +4.6466350058430379e+00 +0.0000000000000000e+00 -4.9999999436767917e-01 +1.4162032844167758e-02 -2.6015369064861144e-01 +1.7905642512138710e-03
-5.9999999999999998e-01 +4.6466064084106602e+00 +0.0000000000000000e+00 -5.9999999026734874e-01 +1.4162015012471878e-02 -2.6015372717659180e-01 +1.7905938977821479e-03
-6.9999999999999996e-01 +4.6465726114431698e+00 +0.0000000000000000e+00 -6.9999998454490886e-01 +1.4161996602980965e-02 -2.6015376498783099e-01 +1.7906241051600660e-03
-7.9999999999999993e-01 +4.6465336149399041e+00 +0.0000000000000000e+00 -7.9999997693000757e-01 +1.4161978025605300e-02 -2.6015380350008155e-01 +1.7906546360623330e-03
-8.9999999999999991e-01 +4.6464894189001997e+00 +0.0000000000000000e+00 -8.9999996715229280e-01 +1.4161959690256628e-02 -2.6015384213110987e-01 +1.7906852531905627e-03
-9.9999999999999989e-01 +4.6464400233234047e+00 +0.0000000000000000e+00 -9.9999995494141236e-01 +1.4161942006844246e-02 -2.6015388029869441e-01 +1.7907157192267682e-03
-1.0999999999999999e+00 +4.6463854282088910e+00 +0.0000000000000000e+00 -1.0999999400270140e+00 +1.4161925385271118e-02 -2.6015391742062310e-01 +1.7907457968268621e-03
-1.2000000000000000e+00 +4.6463256335560654e+00 +0.0000000000000000e+00 -1.1999999221387452e+00 +1.4161910235429941e-02 -2.6015395291469107e-01 +1.7907752486141450e-03
-1.3000000000000000e+00 +4.6462606393643808e+00 +0.0000000000000000e+00 -1.2999999010062535e+00 +1.4161896967199224e-02 -2.6015398619869856e-01 +1.7908038371728073e-03
-1.4000000000000001e+00 +4.6461904456333487e+00 +0.0000000000000000e+00 -1.3999998763591863e+00 +1.4161885990439408e-02 -2.6015401669044880e-01 +1.7908313250414253e-03
-1.5000000000000002e+00 +4.6461150523625507e+00 +0.0000000000000000e+00 -1.4999998479271912e+00 +1.4161877714988945e-02 -2.6015404380774515e-01 +1.7908574747064602e-03
-1.6000000000000003e+00 +4.6460344595516494e+00 +0.0000000000000000e+00 -1.5999998154399153e+00 +1.4161872550660398e-02 -2.6015406696839016e-01 +1.7908820485957602e-03
-1.7000000000000004e+00 +4.6459486672004005e+00 +0.0000000000000000e+00 -1.6999997786270062e+00 +1.4161870907236543e-02 -2.6015408559018122e-01 +1.7909048090720605e-03
-1.8000000000000005e+00 +4.6458576753086644e+00 +0.0000000000000000e+00 -1.7999997372181111e+00 +1.4161873194466445e-02 -2.6015409909091058e-01 +1.7909255184264897e-03
-1.9000000000000006e+00 +4.6457614838764192e+00 +0.0000000000000000e+00 -1.8999996909428776e+00 +1.4161879822061579e-02 -2.6015410688836199e-01 +1.7909439388720753e-03
-2.0000000000000004e+00 +4.6456600929037695e+00 +0.0000000000000000e+00 -1.9999996395309529e+00 +1.4161891199691927e-02 -2.6015410840030806e-01 +1.7909598325372485e-03
-2.1000000000000005e+00 +4.6455535023909604e+00 +0.0000000000000000e+00 -2.0999995827119848e+00 +1.4161907611571699e-02 -2.6015410319397592e-01 +1.7909730471729936e-03
-2.2000000000000006e+00 +4.6454417123383838e+00 +0.0000000000000000e+00 -2.1999995202156213e+00 +1.4161928840233064e-02 -2.6015409143444856e-01 +1.7909837733284910e-03
-2.3000000000000007e+00 +4.6453247227465759e+00 +0.0000000000000000e+00 -2.2999994517715101e+00 +1.4161954542783375e-02 -2.6015407343625807e-01 +1.7909922872734454e-03
-2.4000000000000008e+00 +4.6452025336162128e+00 +0.0000000000000000e+00 -2.3999993771092996e+00 +1.4161984376322656e-02 -2.6015404951391125e-01 +1.7909988652979260e-03
-2.5000000000000009e+00 +4.6450751449481018e+00 +0.0000000000000000e+00 -2.4999992959586383e+00 +1.4162017997944665e-02 -2.6015401998188720e-01 +1.7910037837189597e-03
-2.6000000000000010e+00 +4.6449425567431772e+00 +0.0000000000000000e+00 -2.5999992080491747e+00 +1.4162055064737984e-02 -2.6015398515463500e-01 +1.7910073188871284e-03
-2.7000000000000011e+00 +4.6448047690024934e+00 +0.0000000000000000e+00 -2.6999991131105574e+00 +1.4162095233787066e-02 -2.6015394534657071e-01 +1.7910097471931631e-03
-2.8000000000000012e+00 +4.6446617817272173e+00 +0.0000000000000000e+00 -2.7999990108724360e+00 +1.4162138162173305e-02 -2.6015390087207418e-01 +1.7910113450745324e-03
-2.9000000000000012e+00 +4.6445135949186245e+00 +0.0000000000000000e+00 -2.8999989010644600e+00 +1.4162183506976119e-02 -2.6015385204548713e-01 +1.7910123890220355e-03
-3.0000000000000013e+00 +4.6443602085780906e+00 +0.0000000000000000e+00 -2.9999987834162787e+00 +1.4162230925273998e-02 -2.6015379918110981e-01 +1.7910131555863862e-03
-3.1000000000000014e+00 +4.6442016227070866e+00 +0.0000000000000000e+00 -3.0999986576575425e+00 +1.4162280074145595e-02 -2.6015374259319834e-01 +1.7910139213847933e-03
-3.2000000000000015e+00 +4.6440378373071711e+00 +0.0000000000000000e+00 -3.1999985235179018e+00 +1.4162330610670787e-02 -2.6015368259596205e-01 +1.7910149631075506e-03
-3.3000000000000016e+00 +4.6438688523799865e+00 +0.0000000000000000e+00 -3.2999983807270072e+00 +1.4162382191931723e-02 -2.6015361950356070e-01 +1.7910165575246062e-03
-3.4000000000000017e+00 +4.6436946679272495e+00 +0.0000000000000000e+00 -3.3999982290145097e+00 +1.4162434475013941e-02 -2.6015355363010201e-01 +1.7910189814921457e-03
-3.5000000000000018e+00 +4.6435152839507472e+00 +0.0000000000000000e+00 -3.4999980681100604e+00 +1.4162487117007376e-02 -2.6015348528963822e-01 +1.7910225119591558e-03
-3.6000000000000019e+00 +4.6433307004523297e+00 +0.0000000000000000e+00 -3.5999978977433114e+00 +1.4162539775007471e-02 -2.6015341479616416e-01 +1.7910274259740019e-03
-3.7000000000000020e+00 +4.6431409174339047e+00 +0.0000000000000000e+00 -3.6999977176439143e+00 +1.4162592106116241e-02 -2.6015334246361377e-01 +1.7910340006909841e-03
-3.8000000000000020e+00 +4.6429459348974298e+00 +0.0000000000000000e+00 -3.7999975275415214e+00 +1.4162643767443308e-02 -2.6015326860585802e-01 +1.7910425133769049e-03
-3.9000000000000021e+00 +4.6427457528449088e+00 +0.0000000000000000e+00 -3.8999973271657855e+00 +1.4162694416107029e-02 -2.6015319353670185e-01 +1.7910532414176256e-03
-4.0000000000000018e+00 +4.6425403712783817e+00 +0.0000000000000000e+00 -3.9999971162463592e+00 +1.4162743709235478e-02 -2.6015311756988097e-01 +1.7910664623246135e-03
-4.1000000000000014e+00 +4.6423297901999225e+00 +0.0000000000000000e+00 -4.0999968945128957e+00 +1.4162791334684215e-02 -2.6015304100001363e-01 +1.7910823742849950e-03
-4.2000000000000011e+00 +4.6421140096116300e+00 +0.0000000000000000e+00 -4.1999966616950486e+00 +1.4162837103217888e-02 -2.6015296404549326e-01 +1.7911008577125112e-03
-4.3000000000000007e+00 +4.6418930295156251e+00 +0.0000000000000000e+00 -4.2999964175224719e+00 +1.4162880856393101e-02 -2.6015288690570659e-01 +1.7911217135300735e-03
-4.4000000000000004e+00 +4.6416668499140465e+00 +0.0000000000000000e+00 -4.3999961617248191e+00 +1.4162922435846038e-02 -2.6015280978009842e-01 +1.7911447426218995e-03
-4.5000000000000000e+00 +4.6414354708090473e+00 +0.0000000000000000e+00 -4.4999958940317448e+00 +1.4162961683297117e-02 -2.6015273286817636e-01 +1.7911697458295132e-03
-4.5999999999999996e+00 +4.6411988922027900e+00 +0.0000000000000000e+00 -4.5999956141729044e+00 +1.4162998440555710e-02 -2.6015265636951601e-01 +1.7911965239477553e-03
-4.6999999999999993e+00 +4.6409571140974419e+00 +0.0000000000000000e+00 -4.6999953218779513e+00 +1.4163032549524742e-02 -2.6015258048376577e-01 +1.7912248777207868e-03
-4.7999999999999989e+00 +4.6407101364951737e+00 +0.0000000000000000e+00 -4.7999950168765420e+00 +1.4163063852205409e-02 -2.6015250541065149e-01 +1.7912546078381036e-03
-4.8999999999999986e+00 +4.6404579593981534e+00 +0.0000000000000000e+00 -4.8999946988983307e+00 +1.4163092190701790e-02 -2.6015243134998145e-01 +1.7912855149305510e-03
-4.9999999999999982e+00 +4.6402005828085420e+00 +0.0000000000000000e+00 -4.9999943676729730e+00 +1.4163117407225524e-02 -2.6015235850165136e-01 +1.7913173995663418e-03
-5.0999999999999979e+00 +4.6399380067284914e+00 +0.0000000000000000e+00 -5.0999940229301250e+00 +1.4163139344100444e-02 -2.6015228706564919e-01 +1.7913500622470798e-03
-5.1999999999999975e+00 +4.6396702311601388e+00 +0.0000000000000000e+00 -5.1999936643994431e+00 +1.4163157843767201e-02 -2.6015221724205956e-01 +1.7913833034037846e-03
-5.2999999999999972e+00 +4.6393972561056032e+00 +0.0000000000000000e+00 -5.2999932918105825e+00 +1.4163172748787912e-02 -2.6015214923106933e-01 +1.7914169233929223e-03
-5.3999999999999968e+00 +4.6391190815669816e+00 +0.0000000000000000e+00 -5.3999929048931996e+00 +1.4163183901850777e-02 -2.6015208323297184e-01 +1.7914507224924391e-03
-5.4999999999999964e+00 +4.6388357075463444e+00 +0.0000000000000000e+00 -5.4999925033769514e+00 +1.4163191145774686e-02 -2.6015201944817218e-01 +1.7914845008978005e-03
-5.5999999999999961e+00 +4.6385471340457327e+00 +0.0000000000000000e+00 -5.5999920869914934e+00 +1.4163194323513839e-02 -2.6015195807719138e-01 +1.7915180587180321e-03
-5.6999999999999957e+00 +4.6382533610671528e+00 +0.0000000000000000e+00 -5.6999916554664836e+00 +1.4163193278162352e-02 -2.6015189932067229e-01 +1.7915511959717691e-03
-5.7999999999999954e+00 +4.6379543886125729e+00 +0.0000000000000000e+00 -5.7999912085315772e+00 +1.4163187852958822e-02 -2.6015184337938307e-01 +1.7915837125833053e-03
-5.8999999999999950e+00 +4.6376502166839195e+00 +0.0000000000000000e+00 -5.8999907459164316e+00 +1.4163177891290971e-02 -2.6015179045422343e-01 +1.7916154083786522e-03
-5.9999999999999947e+00 +4.6373408452830711e+00 +0.0000000000000000e+00 -5.9999902673507037e+00 +1.4163163236700164e-02 -2.6015174074622782e-01 +1.7916460830815998e-03
-6.0999999999999943e+00 +4.6370262744118582e+00 +0.0000000000000000e+00 -6.0999897725640500e+00 +1.4163143851696366e-02 -2.6015169437326907e-01 +1.7916755793922204e-03
-6.1999999999999940e+00 +4.6367065040720581e+00 +0.0000000000000000e+00 -6.1999892612861274e+00 +1.4163120174219607e-02 -2.6015165111996308e-01 +1.7917039123424420e-03
-6.2999999999999936e+00 +4.6363815342654009e+00 +0.0000000000000000e+00 -6.2999887332465923e+00 +1.4163092760940169e-02 -2.6015161068746434e-01 +1.7917311401312820e-03
-6.3999999999999932e+00 +4.6360513649935733e+00 +0.0000000000000000e+00 -6.3999881881751017e+00 +1.4163062168342216e-02 -2.6015157277678858e-01 +1.7917573210358701e-03
-6.4999999999999929e+00 +4.6357159962582264e+00 +0.0000000000000000e+00 -6.4999876258013130e+00 +1.4163028952714735e-02 -2.6015153708880567e-01 +1.7917825134149625e-03
-6.5999999999999925e+00 +4.6353754280609802e+00 +0.0000000000000000e+00 -6.5999870458548822e+00 +1.4162993670142532e-02 -2.6015150332423459e-01 +1.7918067757124638e-03
-6.6999999999999922e+00 +4.6350296604034309e+00 +0.0000000000000000e+00 -6.6999864480654656e+00 +1.4162956876497162e-02 -2.6015147118363563e-01 +1.7918301664609335e-03
-6.7999999999999918e+00 +4.6346786932871558e+00 +0.0000000000000000e+00 -6.7999858321627213e+00 +1.4162919127427929e-02 -2.6015144036740512e-01 +1.7918527442850982e-03
-6.8999999999999915e+00 +4.6343225267137207e+00 +0.0000000000000000e+00 -6.8999851978763047e+00 +1.4162880978352907e-02 -2.6015141057576879e-01 +1.7918745679053494e-03
-6.9999999999999911e+00 +4.6339611606846836e+00 +0.0000000000000000e+00 -6.9999845449358737e+00 +1.4162842984449892e-02 -2.6015138150877526e-01 +1.7918956961412392e-03
-7.0999999999999908e+00 +4.6335945952016040e+00 +0.0000000000000000e+00 -7.0999838730710856e+00 +1.4162805700647433e-02 -2.6015135286629004e-01 +1.7919161879149752e-03
-7.1999999999999904e+00 +4.6332228302660452e+00 +0.0000000000000000e+00 -7.1999831820115965e+00 +1.4162769681615854e-02 -2.6015132434798932e-01 +1.7919361022549038e-03
-7.2999999999999901e+00 +4.6328458658795828e+00 +0.0000000000000000e+00 -7.2999824714870645e+00 +1.4162735481758277e-02 -2.6015129565335338e-01 +1.7919554982989930e-03
-7.3999999999999897e+00 +4.6324637020438093e+00 +0.0000000000000000e+00 -7.3999817412271467e+00 +1.4162703655201643e-02 -2.6015126648166048e-01 +1.7919744352983033e-03
-7.4999999999999893e+00 +4.6320763387603421e+00 +0.0000000000000000e+00 -7.4999809909615012e+00 +1.4162674755787790e-02 -2.6015123653198091e-01 +1.7919929726204625e-03
-7.5999999999999890e+00 +4.6316837760308278e+00 +0.0000000000000000e+00 -7.5999802204197850e+00 +1.4162649337064483e-02 -2.6015120550317017e-01 +1.7920111697531252e-03
-7.6999999999999886e+00 +4.6312860138569478e+00 +0.0000000000000000e+00 -7.6999794293316564e+00 +1.4162627952276496e-02 -2.6015117309386343e-01 +1.7920290863074309e-03
-7.7999999999999883e+00 +4.6308830522404261e+00 +0.0000000000000000e+00 -7.7999786174267740e+00 +1.4162611154356698e-02 -2.6015113900246883e-01 +1.7920467820214557e-03
-7.8999999999999879e+00 +4.6304748911830336e+00 +0.0000000000000000e+00 -7.8999777844347960e+00 +1.4162599495917126e-02 -2.6015110292716148e-01 +1.7920643167636562e-03
-7.9999999999999876e+00 +4.6300615306865955e+00 +0.0000000000000000e+00 -7.9999769300853822e+00 +1.4162593529240094e-02 -2.6015106456587739e-01 +1.7920817505363085e-03
-8.0999999999999872e+00 +4.6296429707529958e+00 +0.0000000000000000e+00 -8.0999760541081915e+00 +1.4162593640358724e-02 -2.6015102365193560e-01 +1.7920991317505275e-03
-8.1999999999999869e+00 +4.6292192113841848e+00 +0.0000000000000000e+00 -8.1999751562328829e+00 +1.4162599551015943e-02 -2.6015098006118159e-01 +1.7921164619130923e-03
-8.2999999999999865e+00 +4.6287902525821787e+00 +0.0000000000000000e+00 -8.2999742361891169e+00 +1.4162610816902333e-02 -2.6015093370534315e-01 +1.7921337306541804e-03
-8.3999999999999861e+00 +4.6283560943490647e+00 +0.0000000000000000e+00 -8.3999732937065534e+00 +1.4162626993841233e-02 -2.6015088449640250e-01 +1.7921509274422382e-03
-8.4999999999999858e+00 +4.6279167366869993e+00 +0.0000000000000000e+00 -8.4999723285148558e+00 +1.4162647637794389e-02 -2.6015083234660430e-01 +1.7921680415784813e-03
-8.5999999999999854e+00 +4.6274721795982137e+00 +0.0000000000000000e+00 -8.5999713403436839e+00 +1.4162672304867551e-02 -2.6015077716846474e-01 +1.7921850621914173e-03
-8.6999999999999851e+00 +4.6270224230850117e+00 +0.0000000000000000e+00 -8.6999703289226993e+00 +1.4162700551316128e-02 -2.6015071887478108e-01 +1.7922019782313720e-03
-8.7999999999999847e+00 +4.6265674671497745e+00 +0.0000000000000000e+00 -8.7999692939815635e+00 +1.4162731933550774e-02 -2.6015065737863907e-01 +1.7922187784650189e-03
-8.8999999999999844e+00 +4.6261073117949625e+00 +0.0000000000000000e+00 -8.8999682352499416e+00 +1.4162766008143021e-02 -2.6015059259342260e-01 +1.7922354514699243e-03
-8.9999999999999840e+00 +4.6256419570231131e+00 +0.0000000000000000e+00 -8.9999671524574971e+00 +1.4162802331830921e-02 -2.6015052443282238e-01 +1.7922519856290904e-03
-9.0999999999999837e+00 +4.6251714028368474e+00 +0.0000000000000000e+00 -9.0999660453338933e+00 +1.4162840461524639e-02 -2.6015045281084437e-01 +1.7922683691255160e-03
-9.1999999999999833e+00 +4.6246956492388689e+00 +0.0000000000000000e+00 -9.1999649136087953e+00 +1.4162879954312103e-02 -2.6015037764181870e-01 +1.7922845899367601e-03
-9.2999999999999829e+00 +4.6242146962319666e+00 +0.0000000000000000e+00 -9.2999637570118683e+00 +1.4162920367464601e-02 -2.6015029884040847e-01 +1.7923006358295151e-03
-9.3999999999999826e+00 +4.6237285438190163e+00 +0.0000000000000000e+00 -9.3999625752727791e+00 +1.4162961258442434e-02 -2.6015021632161811e-01 +1.7923164943541867e-03
-9.4999999999999822e+00 +4.6232371920029811e+00 +0.0000000000000000e+00 -9.4999613681211930e+00 +1.4163002184900519e-02 -2.6015013000080278e-01 +1.7923321528394882e-03
-9.5999999999999819e+00 +4.6227406407869145e+00 +0.0000000000000000e+00 -9.5999601352867785e+00 +1.4163042704694014e-02 -2.6015003979367585e-01 +1.7923475983870360e-03
-9.6999999999999815e+00 +4.6222388901739624e+00 +0.0000000000000000e+00 -9.6999588764992026e+00 +1.4163082375883946e-02 -2.6014994561631910e-01 +1.7923628178659621e-03
-9.7999999999999812e+00 +4.6217319401673631e+00 +0.0000000000000000e+00 -9.7999575914881358e+00 +1.4163120756742850e-02 -2.6014984738519009e-01 +1.7923777979075271e-03
-9.8999999999999808e+00 +4.6212197907704509e+00 +0.0000000000000000e+00 -9.8999562799832468e+00 +1.4163157405760374e-02 -2.6014974501713156e-01 +1.7923925248997524e-03
-9.9999999999999805e+00 +4.6207024419866558e+00 +0.0000000000000000e+00 -9.9999549417142077e+00 +1.4163191881648904e-02 -2.6014963842937960e-01 +1.7924069849820535e-03
-1.0099999999999980e+01 +4.6201798938195076e+00 +0.0000000000000000e+00 -1.0099953576410687e+01 +1.4163223809899813e-02 -2.6014952763949717e-01 +1.7924211787157312e-03
-1.0199999999999980e+01 +4.6196521462726317e+00 +0.0000000000000000e+00 -1.0199952183802360e+01 +1.4163253082764758e-02 -2.6014941306542233e-01 +1.7924351653479647e-03
-1.0299999999999979e+01 +4.6191191993497442e+00 +0.0000000000000000e+00 -1.0299950763618897e+01 +1.4163279659364947e-02 -2.6014929522494601e-01 +1.7924490190290032e-03
-1.0399999999999979e+01 +4.6185810530546405e+00 +0.0000000000000000e+00 -1.0399949315589975e+01 +1.4163303498954213e-02 -2.6014917463543746e-01 +1.7924628141430519e-03
-1.0499999999999979e+01 +4.6180377073911849e+00 +0.0000000000000000e+00 -1.0499947839445266e+01 +1.4163324560921725e-02 -2.6014905181383396e-01 +1.7924766253146292e-03
-1.0599999999999978e+01 +4.6174891623632996e+00 +0.0000000000000000e+00 -1.0599946334914446e+01 +1.4163342804794726e-02 -2.6014892727662825e-01 +1.7924905274149109e-03
-1.0699999999999978e+01 +4.6169354179749558e+00 +0.0000000000000000e+00 -1.0699944801727190e+01 +1.4163358190241247e-02 -2.6014880153985820e-01 +1.7925045955680691e-03
-1.0799999999999978e+01 +4.6163764742301625e+00 +0.0000000000000000e+00 -1.0799943239613176e+01 +1.4163370677072795e-02 -2.6014867511909479e-01 +1.7925189051576007e-03
-1.0899999999999977e+01 +4.6158123311329566e+00 +0.0000000000000000e+00 -1.0899941648302081e+01 +1.4163380225247029e-02 -2.6014854852943126e-01 +1.7925335318326446e-03
-1.0999999999999977e+01 +4.6152429886873927e+00 +0.0000000000000000e+00 -1.0999940027523580e+01 +1.4163386794870461e-02 -2.6014842228547147e-01 +1.7925485515142951e-03
-1.1099999999999977e+01 +4.6146684468975314e+00 +0.0000000000000000e+00 -1.1099938377007353e+01 +1.4163390346201067e-02 -2.6014829690131847e-01 +1.7925640404018988e-03
-1.1199999999999976e+01 +4.6140887057674318e+00 +0.0000000000000000e+00 -1.1199936696483078e+01 +1.4163390839650998e-02 -2.6014817289056347e-01 +1.7925800749793482e-03
-1.1299999999999976e+01 +4.6135037653011386e+00 +0.0000000000000000e+00 -1.1299934985680434e+01 +1.4163388235789132e-02 -2.6014805076627440e-01 +1.7925967320213620e-03
-1.1399999999999975e+01 +4.6129136255026726e+00 +0.0000000000000000e+00 -1.1399933244329100e+01 +1.4163382495343742e-02 -2.6014793104098427e-01 +1.7926140885997522e-03
-1.1499999999999975e+01 +4.6123182863760217e+00 +0.0000000000000000e+00 -1.1499931472158755e+01 +1.4163373579205102e-02 -2.6014781422668048e-01 +1.7926322220896938e-03
-1.1599999999999975e+01 +4.6117177479251295e+00 +0.0000000000000000e+00 -1.1599929668899078e+01 +1.4163361448428032e-02 -2.6014770083479299e-01 +1.7926512101759640e-03
-1.1699999999999974e+01 +4.6111120101538843e+00 +0.0000000000000000e+00 -1.1699927834279746e+01 +1.4163346064234507e-02 -2.6014759137618304e-01 +1.7926711308591909e-03
