# field on trajectory
# s[mm] rx[mm] ry[mm] rz[mm] bx[T] by[T] bz[T]
0.0000000000000000e+00 +4.6467000000000001e+00 +0.0000000000000000e+00 +0.0000000000000000e+00 +2.1221584831050685e-02 -3.9051606834944064e-01 +2.7448909495366696e-03
1.0000000000000001e-01 +4.6466956811975084e+00 +0.0000000000000000e+00 +9.9999999875652959e-02 +2.1221539906740583e-02 -3.9051604076129226e-01 +2.7448673619674497e-03
2.0000000000000001e-01 +4.6466827247905185e+00 +0.0000000000000000e+00 +1.9999999900522381e-01 +2.1221500965730531e-02 -3.9051600137504389e-01 +2.7448429972520023e-03
3.0000000000000004e-01 +4.6466611307799948e+00 +0.0000000000000000e+00 +2.9999999664263061e-01 +2.1221467633690972e-02 -3.9051595149440804e-01 +2.7448178627802410e-03
4.0000000000000002e-01 +4.6466308991671994e+00 +0.0000000000000000e+00 +3.9999999204179171e-01 +2.1221439536330617e-02 -3.9051589242287826e-01 +2.7447919658930451e-03
5.0000000000000000e-01 +4.6465920299536627e+00 +0.0000000000000000e+00 +4.9999998445662591e-01 +2.1221416299387230e-02 -3.9051582546375041e-01 +2.7447653138872015e-03
5.9999999999999998e-01 +4.6465445231411531e+00 +0.0000000000000000e+00 +5.9999997314105236e-01 +2.1221397548618143e-02 -3.9051575192014232e-01 +2.7447379140203274e-03
6.9999999999999996e-01 +4.6464883787316493e+00 +0.0000000000000000e+00 +6.9999995734899079e-01 +2.1221382909790969e-02 -3.9051567309501289e-01 +2.7447097735158067e-03
7.9999999999999993e-01 +4.6464235967273106e+00 +0.0000000000000000e+00 +7.9999993633436151e-01 +2.1221372008674161e-02 -3.9051559029118282e-01 +2.7446808995677256e-03
8.9999999999999991e-01 +4.6463501771304498e+00 +0.0000000000000000e+00 +8.9999990935108520e-01 +2.1221364471027713e-02 -3.9051550481135383e-01 +2.7446512993458049e-03
9.9999999999999989e-01 +4.6462681199435032e+00 +0.0000000000000000e+00 +9.9999987565308324e-01 +2.1221359922593757e-02 -3.9051541795812911e-01 +2.7446209800003362e-03
1.0999999999999999e+00 +4.6461774251690020e+00 +0.0000000000000000e+00 +1.0999998344942774e+00 +2.1221357989087190e-02 -3.9051533103403197e-01 +2.7445899486671205e-03
1.2000000000000000e+00 +4.6460780928095424e+00 +0.0000000000000000e+00 +1.1999997851285904e+00 +2.1221358296186359e-02 -3.9051524534152710e-01 +2.7445582124724045e-03
1.3000000000000000e+00 +4.6459701228677588e+00 +0.0000000000000000e+00 +1.2999997268099452e+00 +2.1221360469523678e-02 -3.9051516218303922e-01 +2.7445257785378200e-03
1.4000000000000001e+00 +4.6458535153462934e+00 +0.0000000000000000e+00 +1.3999996587922652e+00 +2.1221364134676301e-02 -3.9051508286097336e-01 +2.7444926539853176e-03
1.5000000000000002e+00 +4.6457282702477682e+00 +0.0000000000000000e+00 +1.4999995803294743e+00 +2.1221368917156747e-02 -3.9051500867773464e-01 +2.7444588459421076e-03
1.6000000000000003e+00 +4.6455943875747563e+00 +0.0000000000000000e+00 +1.5999994906754968e+00 +2.1221374442403573e-02 -3.9051494093574735e-01 +2.7444243615455939e-03
1.7000000000000004e+00 +4.6454518673297525e+00 +0.0000000000000000e+00 +1.6999993890842575e+00 +2.1221380335772089e-02 -3.9051488093747549e-01 +2.7443892079483138e-03
1.8000000000000005e+00 +4.6453007095151451e+00 +0.0000000000000000e+00 +1.7999992748096811e+00 +2.1221386222524983e-02 -3.9051482998544162e-01 +2.7443533923228645e-03
1.9000000000000006e+00 +4.6451409141331856e+00 +0.0000000000000000e+00 +1.8999991471056925e+00 +2.1221391727823030e-02 -3.9051478938224737e-01 +2.7443169218668525e-03
2.0000000000000004e+00 +4.6449724811859632e+00 +0.0000000000000000e+00 +1.9999990052262167e+00 +2.1221396476715799e-02 -3.9051476043059130e-01 +2.7442798038078051e-03
2.1000000000000005e+00 +4.6447954106753713e+00 +0.0000000000000000e+00 +2.0999988484251784e+00 +2.1221400119771767e-02 -3.9051474399066538e-01 +2.7442420545094270e-03
2.2000000000000006e+00 +4.6446097026030975e+00 +0.0000000000000000e+00 +2.1999986759565027e+00 +2.1221402410028182e-02 -3.9051473915224516e-01 +2.7442037267688627e-03
2.3000000000000007e+00 +4.6444153569706375e+00 +0.0000000000000000e+00 +2.2999984870741135e+00 +2.1221403126133662e-02 -3.9051474456261936e-01 +2.7441648824930286e-03
2.4000000000000008e+00 +4.6442123737793226e+00 +0.0000000000000000e+00 +2.3999982810319347e+00 +2.1221402046719837e-02 -3.9051475886926185e-01 +2.7441255835943374e-03
2.5000000000000009e+00 +4.6440007530303546e+00 +0.0000000000000000e+00 +2.4999980570838902e+00 +2.1221398950405139e-02 -3.9051478071985274e-01 +2.7440858919912142e-03
2.6000000000000010e+00 +4.6437804947248313e+00 +0.0000000000000000e+00 +2.5999978144839035e+00 +2.1221393615798702e-02 -3.9051480876229899e-01 +2.7440458696086074e-03
2.7000000000000011e+00 +4.6435515988637777e+00 +0.0000000000000000e+00 +2.6999975524858977e+00 +2.1221385821504079e-02 -3.9051484164475436e-01 +2.7440055783785116e-03
2.8000000000000012e+00 +4.6433140654481768e+00 +0.0000000000000000e+00 +2.7999972703437956e+00 +2.1221375346123190e-02 -3.9051487801564094e-01 +2.7439650802404728e-03
2.9000000000000012e+00 +4.6430678944789987e+00 +0.0000000000000000e+00 +2.8999969673115196e+00 +2.1221361968260015e-02 -3.9051491652366938e-01 +2.7439244371421081e-03
3.0000000000000013e+00 +4.6428130859572319e+00 +0.0000000000000000e+00 +2.9999966426429920e+00 +2.1221345466524516e-02 -3.9051495581785961e-01 +2.7438837110396090e-03
3.1000000000000014e+00 +4.6425496398839092e+00 +0.0000000000000000e+00 +3.0999962955921356e+00 +2.1221325619536390e-02 -3.9051499454756128e-01 +2.7438429638982592e-03
3.2000000000000015e+00 +4.6422775562601428e+00 +0.0000000000000000e+00 +3.1999959254128725e+00 +2.1221302205928862e-02 -3.9051503136247534e-01 +2.7438022576929334e-03
3.3000000000000016e+00 +4.6419968350871512e+00 +0.0000000000000000e+00 +3.2999955313591247e+00 +2.1221275004352554e-02 -3.9051506491267401e-01 +2.7437616544086101e-03
3.4000000000000017e+00 +4.6417074763662889e+00 +0.0000000000000000e+00 +3.3999951126848149e+00 +2.1221243793479234e-02 -3.9051509384862232e-01 +2.7437212160408768e-03
3.5000000000000018e+00 +4.6414094800990773e+00 +0.0000000000000000e+00 +3.4999946686438661e+00 +2.1221208352005638e-02 -3.9051511682119916e-01 +2.7436810045964257e-03
3.6000000000000019e+00 +4.6411028462872332e+00 +0.0000000000000000e+00 +3.5999941984902013e+00 +2.1221168458657232e-02 -3.9051513248171671e-01 +2.7436410820935605e-03
3.7000000000000020e+00 +4.6407875749327019e+00 +0.0000000000000000e+00 +3.6999937014777444e+00 +2.1221123892192040e-02 -3.9051513948194433e-01 +2.7436015105626976e-03
3.8000000000000020e+00 +4.6404636660376823e+00 +0.0000000000000000e+00 +3.7999931768604203e+00 +2.1221074431404363e-02 -3.9051513647412661e-01 +2.7435623520468536e-03
3.9000000000000021e+00 +4.6401311196046597e+00 +0.0000000000000000e+00 +3.8999926238921541e+00 +2.1221019855128611e-02 -3.9051512211100675e-01 +2.7435236686021488e-03
4.0000000000000018e+00 +4.6397899356364363e+00 +0.0000000000000000e+00 +3.9999920418268724e+00 +2.1220959942243045e-02 -3.9051509504584653e-01 +2.7434855222982905e-03
4.1000000000000014e+00 +4.6394401141361579e+00 +0.0000000000000000e+00 +4.0999914299185036e+00 +2.1220894624968900e-02 -3.9051505438118123e-01 +2.7434479614752111e-03
4.2000000000000011e+00 +4.6390816551073319e+00 +0.0000000000000000e+00 +4.1999907874209761e+00 +2.1220824448927429e-02 -3.9051500101515779e-01 +2.7434109795021365e-03
4.3000000000000007e+00 +4.6387145585538105e+00 +0.0000000000000000e+00 +4.2999901135882208e+00 +2.1220750113221835e-02 -3.9051493629457895e-01 +2.7433745560222697e-03
4.4000000000000004e+00 +4.6383388244797610e+00 +0.0000000000000000e+00 +4.3999894076741706e+00 +2.1220672317081104e-02 -3.9051486156584703e-01 +2.7433386707050728e-03
4.5000000000000000e+00 +4.6379544528896375e+00 +0.0000000000000000e+00 +4.4999886689327591e+00 +2.1220591759867406e-02 -3.9051477817492841e-01 +2.7433033032473494e-03
4.5999999999999996e+00 +4.6375614437881501e+00 +0.0000000000000000e+00 +4.5999878966179208e+00 +2.1220509141083466e-02 -3.9051468746731854e-01 +2.7432684333742892e-03
4.6999999999999993e+00 +4.6371597971802343e+00 +0.0000000000000000e+00 +4.6999870899835932e+00 +2.1220425160380026e-02 -3.9051459078800621e-01 +2.7432340408405408e-03
4.7999999999999989e+00 +4.6367495130710221e+00 +0.0000000000000000e+00 +4.7999862482837132e+00 +2.1220340517563111e-02 -3.9051448948143930e-01 +2.7432001054312587e-03
4.8999999999999986e+00 +4.6363305914658133e+00 +0.0000000000000000e+00 +4.8999853707722201e+00 +2.1220255912601453e-02 -3.9051438489148815e-01 +2.7431666069631568e-03
4.9999999999999982e+00 +4.6359030323700443e+00 +0.0000000000000000e+00 +4.9999844567030545e+00 +2.1220172045633815e-02 -3.9051427836141134e-01 +2.7431335252855538e-03
5.0999999999999979e+00 +4.6354668357892592e+00 +0.0000000000000000e+00 +5.0999835053301572e+00 +2.1220089616976252e-02 -3.9051417123381887e-01 +2.7431008402814148e-03
5.1999999999999975e+00 +4.6350220017290784e+00 +0.0000000000000000e+00 +5.1999825159074708e+00 +2.1220009327129433e-02 -3.9051406485063817e-01 +2.7430685318683887e-03
5.2999999999999972e+00 +4.6345685301951720e+00 +0.0000000000000000e+00 +5.2999814876889380e+00 +2.1219931876785936e-02 -3.9051396055307730e-01 +2.7430365799998441e-03
5.3999999999999968e+00 +4.6341064211932279e+00 +0.0000000000000000e+00 +5.3999804199285029e+00 +2.1219857966837428e-02 -3.9051385968158953e-01 +2.7430049646658869e-03
5.4999999999999964e+00 +4.6336356747289216e+00 +0.0000000000000000e+00 +5.4999793118801090e+00 +2.1219788298381954e-02 -3.9051376357583822e-01 +2.7429736658943992e-03
5.5999999999999961e+00 +4.6331562908078885e+00 +0.0000000000000000e+00 +5.5999781627977017e+00 +2.1219723572731095e-02 -3.9051367357465994e-01 +2.7429426637520381e-03
5.6999999999999957e+00 +4.6326682694356940e+00 +0.0000000000000000e+00 +5.6999769719352260e+00 +2.1219664491417146e-02 -3.9051359101602939e-01 +2.7429119383452646e-03
5.7999999999999954e+00 +4.6321716106178021e+00 +0.0000000000000000e+00 +5.7999757385466264e+00 +2.1219611756200327e-02 -3.9051351723702316e-01 +2.7428814698213424e-03
5.8999999999999950e+00 +4.6316663143595482e+00 +0.0000000000000000e+00 +5.8999744618858481e+00 +2.1219566069075820e-02 -3.9051345357378386e-01 +2.7428512383693379e-03
5.9999999999999947e+00 +4.6311523806661068e+00 +0.0000000000000000e+00 +5.9999731412068344e+00 +2.1219528132280920e-02 -3.9051340136148310e-01 +2.7428212242211220e-03
6.0999999999999943e+00 +4.6306298095424658e+00 +0.0000000000000000e+00 +6.0999717757635299e+00 +2.1219498424037635e-02 -3.9051336158687339e-01 +2.7427914101747775e-03
6.1999999999999940e+00 +4.6300986009934046e+00 +0.0000000000000000e+00 +6.1999703648098770e+00 +2.1219476524850518e-02 -3.9051333384545772e-01 +2.7427617891407044e-03
6.2999999999999936e+00 +4.6295587550235009e+00 +0.0000000000000000e+00 +6.2999689075998173e+00 +2.1219461790320932e-02 -3.9051331738528000e-01 +2.7427323565166169e-03
6.3999999999999932e+00 +4.6290102716371484e+00 +0.0000000000000000e+00 +6.3999674033872926e+00 +2.1219453575710347e-02 -3.9051331145507279e-01 +2.7427031076510417e-03
6.4999999999999929e+00 +4.6284531508385713e+00 +0.0000000000000000e+00 +6.4999658514262419e+00 +2.1219451235924482e-02 -3.9051331530428984e-01 +2.7426740378407007e-03
6.5999999999999925e+00 +4.6278873926318429e+00 +0.0000000000000000e+00 +6.5999642509706060e+00 +2.1219454125497573e-02 -3.9051332818314155e-01 +2.7426451423279005e-03
6.6999999999999922e+00 +4.6273129970209004e+00 +0.0000000000000000e+00 +6.6999626012743230e+00 +2.1219461598576638e-02 -3.9051334934262877e-01 +2.7426164162979360e-03
6.7999999999999918e+00 +4.6267299640095620e+00 +0.0000000000000000e+00 +6.7999609015913309e+00 +2.1219473008905757e-02 -3.9051337803457670e-01 +2.7425878548764807e-03
6.8999999999999915e+00 +4.6261382936015449e+00 +0.0000000000000000e+00 +6.8999591511755662e+00 +2.1219487709810438e-02 -3.9051341351166957e-01 +2.7425594531269933e-03
6.9999999999999911e+00 +4.6255379858004799e+00 +0.0000000000000000e+00 +6.9999573492809661e+00 +2.1219505054182033e-02 -3.9051345502748536e-01 +2.7425312060481285e-03
7.0999999999999908e+00 +4.6249290406099295e+00 +0.0000000000000000e+00 +7.0999554951614652e+00 +2.1219524394462126e-02 -3.9051350183652950e-01 +2.7425031085711454e-03
7.1999999999999904e+00 +4.6243114580334019e+00 +0.0000000000000000e+00 +7.1999535880709997e+00 +2.1219545082627082e-02 -3.9051355319426884e-01 +2.7424751555573264e-03
7.2999999999999901e+00 +4.6236852380743709e+00 +0.0000000000000000e+00 +7.2999516272635043e+00 +2.1219566470172542e-02 -3.9051360835716825e-01 +2.7424473417954004e-03
7.3999999999999897e+00 +4.6230503807362897e+00 +0.0000000000000000e+00 +7.3999496119929127e+00 +2.1219587908098015e-02 -3.9051366658272257e-01 +2.7424196619989637e-03
7.4999999999999893e+00 +4.6224068860226080e+00 +0.0000000000000000e+00 +7.4999475415131593e+00 +2.1219608746891522e-02 -3.9051372712949306e-01 +2.7423921108039226e-03
7.5999999999999890e+00 +4.6217547539367896e+00 +0.0000000000000000e+00 +7.5999454150781780e+00 +2.1219628336514272e-02 -3.9051378925714114e-01 +2.7423646827659195e-03
7.6999999999999886e+00 +4.6210939844823260e+00 +0.0000000000000000e+00 +7.6999432319419014e+00 +2.1219646026385375e-02 -3.9051385222646301e-01 +2.7423373723577805e-03
7.7999999999999883e+00 +4.6204245776627566e+00 +0.0000000000000000e+00 +7.7999409913582634e+00 +2.1219661165366700e-02 -3.9051391529942509e-01 +2.7423101739669649e-03
7.8999999999999879e+00 +4.6197465334816821e+00 +0.0000000000000000e+00 +7.8999386925811974e+00 +2.1219673101747660e-02 -3.9051397773919783e-01 +2.7422830818930174e-03
7.9999999999999876e+00 +4.6190598519427803e+00 +0.0000000000000000e+00 +7.9999363348646373e+00 +2.1219681183230147e-02 -3.9051403881019148e-01 +2.7422560903450268e-03
8.0999999999999872e+00 +4.6183645330498262e+00 +0.0000000000000000e+00 +8.0999339174625167e+00 +2.1219684887216799e-02 -3.9051409784811864e-01 +2.7422291926293262e-03
8.1999999999999869e+00 +4.6176605768067018e+00 +0.0000000000000000e+00 +8.1999314396287701e+00 +2.1219684213006951e-02 -3.9051415447006066e-01 +2.7422023787250366e-03
8.2999999999999865e+00 +4.6169479832174067e+00 +0.0000000000000000e+00 +8.2999289006173331e+00 +2.1219679290919748e-02 -3.9051420836309458e-01 +2.7421756377382887e-03
8.3999999999999861e+00 +4.6162267522860674e+00 +0.0000000000000000e+00 +8.3999262996821411e+00 +2.1219670251579219e-02 -3.9051425921383215e-01 +2.7421489587172547e-03
8.4999999999999858e+00 +4.6154968840169390e+00 +0.0000000000000000e+00 +8.4999236360771295e+00 +2.1219657225926260e-02 -3.9051430670840054e-01 +2.7421223306509750e-03
8.5999999999999854e+00 +4.6147583784144182e+00 +0.0000000000000000e+00 +8.5999209090562356e+00 +2.1219640345230620e-02 -3.9051435053242278e-01 +2.7420957424682184e-03
8.6999999999999851e+00 +4.6140112354830460e+00 +0.0000000000000000e+00 +8.6999181178733966e+00 +2.1219619741102848e-02 -3.9051439037099805e-01 +2.7420691830363467e-03
8.7999999999999847e+00 +4.6132554552275158e+00 +0.0000000000000000e+00 +8.7999152617825498e+00 +2.1219595545506294e-02 -3.9051442590868207e-01 +2.7420426411601901e-03
8.8999999999999844e+00 +4.6124910376526804e+00 +0.0000000000000000e+00 +8.8999123400376359e+00 +2.1219567890768953e-02 -3.9051445682946823e-01 +2.7420161055809471e-03
8.9999999999999840e+00 +4.6117179827635599e+00 +0.0000000000000000e+00 +8.9999093518925957e+00 +2.1219536909595420e-02 -3.9051448281676726e-01 +2.7419895649750895e-03
9.0999999999999837e+00 +4.6109362905653484e+00 +0.0000000000000000e+00 +9.0999062966013717e+00 +2.1219502735078680e-02 -3.9051450355338863e-01 +2.7419630079532921e-03
9.1999999999999833e+00 +4.6101459610634192e+00 +0.0000000000000000e+00 +9.1999031734179049e+00 +2.1219465500712024e-02 -3.9051451872152032e-01 +2.7419364230593614e-03
9.2999999999999829e+00 +4.6093469942633343e+00 +0.0000000000000000e+00 +9.2998999815961412e+00 +2.1219425340400753e-02 -3.9051452800271058e-01 +2.7419097987692069e-03
9.3999999999999826e+00 +4.6085393901708489e+00 +0.0000000000000000e+00 +9.3998967203900268e+00 +2.1219382388474071e-02 -3.9051453107784773e-01 +2.7418831234898018e-03
9.4999999999999822e+00 +4.6077231487919219e+00 +0.0000000000000000e+00 +9.4998933890535078e+00 +2.1219336779696740e-02 -3.9051452762714134e-01 +2.7418563855581730e-03
9.5999999999999819e+00 +4.6068982701327199e+00 +0.0000000000000000e+00 +9.5998899868405339e+00 +2.1219288649280854e-02 -3.9051451733010251e-01 +2.7418295732404055e-03
9.6999999999999815e+00 +4.6060647541996254e+00 +0.0000000000000000e+00 +9.6998865130050564e+00 +2.1219238132897465e-02 -3.9051449986552522e-01 +2.7418026747306665e-03
9.7999999999999812e+00 +4.6052226009992436e+00 +0.0000000000000000e+00 +9.7998829668010270e+00 +2.1219185366688320e-02 -3.9051447491146690e-01 +2.7417756781502435e-03
9.8999999999999808e+00 +4.6043718105384102e+00 +0.0000000000000000e+00 +9.8998793474824023e+00 +2.1219130487277405e-02 -3.9051444214522918e-01 +2.7417485715466004e-03
9.9999999999999805e+00 +4.6035123828241984e+00 +0.0000000000000000e+00 +9.9998756543031373e+00 +2.1219073631782586e-02 -3.9051440124333903e-01 +2.7417213428924509e-03
1.0099999999999980e+01 +4.6026443178639251e+00 +0.0000000000000000e+00 +1.0099871886517194e+01 +2.1219014981792721e-02 -3.9051435203024476e-01 +2.7416939911199824e-03
1.0199999999999980e+01 +4.6017676156651541e+00 +0.0000000000000000e+00 +1.0199868043378533e+01 +2.1218954895844303e-02 -3.9051429492679191e-01 +2.7416665594684744e-03
1.0299999999999979e+01 +4.6008822762356880e+00 +0.0000000000000000e+00 +1.0299864124141118e+01 +2.1218893777049233e-02 -3.9051423050317141e-01 +2.7416391024350428e-03
1.0399999999999979e+01 +4.5999882995835568e+00 +0.0000000000000000e+00 +1.0399860128058915e+01 +2.1218832028782893e-02 -3.9051415932911132e-01 +2.7416116746804779e-03
1.0499999999999979e+01 +4.5990856857170028e+00 +0.0000000000000000e+00 +1.0499856054385894e+01 +2.1218770054689043e-02 -3.9051408197386533e-01 +2.7415843310334325e-03
1.0599999999999978e+01 +4.5981744346444700e+00 +0.0000000000000000e+00 +1.0599851902376026e+01 +2.1218708258684632e-02 -3.9051399900620209e-01 +2.7415571264945856e-03
1.0699999999999978e+01 +4.5972545463745913e+00 +0.0000000000000000e+00 +1.0699847671283283e+01 +2.1218647044964681e-02 -3.9051391099439364e-01 +2.7415301162407907e-03
1.0799999999999978e+01 +4.5963260209161749e+00 +0.0000000000000000e+00 +1.0799843360361642e+01 +2.1218586818007042e-02 -3.9051381850620509e-01 +2.7415033556291929e-03
1.0899999999999977e+01 +4.5953888582781932e+00 +0.0000000000000000e+00 +1.0899838968865080e+01 +2.1218527982577132e-02 -3.9051372210888241e-01 +2.7414769002013181e-03
1.0999999999999977e+01 +4.5944430584697686e+00 +0.0000000000000000e+00 +1.0999834496047574e+01 +2.1218470943732699e-02 -3.9051362236914200e-01 +2.7414508056871480e-03
1.1099999999999977e+01 +4.5934886215001631e+00 +0.0000000000000000e+00 +1.1099829941163108e+01 +2.1218416106828439e-02 -3.9051351985315930e-01 +2.7414251280091597e-03
1.1199999999999976e+01 +4.5925255473787638e+00 +0.0000000000000000e+00 +1.1199825303465664e+01 +2.1218363877520671e-02 -3.9051341512655713e-01 +2.7413999232863396e-03
1.1299999999999976e+01 +4.5915538361150707e+00 +0.0000000000000000e+00 +1.1299820582209227e+01 +2.1218314661771969e-02 -3.9051330875439494e-01 +2.7413752478381770e-03
1.1399999999999975e+01 +4.5905734877186850e+00 +0.0000000000000000e+00 +1.1399815776647783e+01 +2.1218268865855639e-02 -3.9051320130115674e-01 +2.7413511581886197e-03
1.1499999999999975e+01 +4.5895845021992967e+00 +0.0000000000000000e+00 +1.1499810886035318e+01 +2.1218226896360329e-02 -3.9051309333074025e-01 +2.7413277110700141e-03
1.1599999999999975e+01 +4.5885868795666713e+00 +0.0000000000000000e+00 +1.1599805909625823e+01 +2.1218189160194481e-02 -3.9051298540644525e-01 +2.7413049634270091e-03
1.1699999999999974e+01 +4.5875806198306384e+00 +0.0000000000000000e+00 +1.1699800846673288e+01 +2.1218156064590776e-02 -3.9051287809096197e-01 +2.7412829724204300e-03
1.1799999999999974e+01 +4.5865657230010770e+00 +0.0000000000000000e+00 +1.1799795696431703e+01 +2.1218128017110514e-02 -3.9051277194635942e-01 +2.7412617954311294e-03
