# trajectory
# s[mm] rx[mm] ry[mm] rz[mm] px[rad] py[rad] pz[rad]
0.0000000000000000e+00 +4.6467000000000001e+00 +0.0000000000000000e+00 +0.0000000000000000e+00 +0.0000000000000000e+00 +0.0000000000000000e+00 +1.0000000000000000e+00
1.0000000000000001e-01 +4.6466956811975084e+00 +0.0000000000000000e+00 +9.9999999875652959e-02 -8.6376048754793769e-05 +0.0000000000000000e+00 +9.9999999626958913e-01
2.0000000000000001e-01 +4.6466827247905185e+00 +0.0000000000000000e+00 +1.9999999900522381e-01 -1.7275208943427420e-04 +0.0000000000000000e+00 +9.9999998507835774e-01
3.0000000000000004e-01 +4.6466611307799948e+00 +0.0000000000000000e+00 +2.9999999664263061e-01 -2.5912811892863475e-04 +0.0000000000000000e+00 +9.9999996642630851e-01
4.0000000000000002e-01 +4.6466308991671994e+00 +0.0000000000000000e+00 +3.9999999204179171e-01 -3.4550413441640569e-04 +0.0000000000000000e+00 +9.9999994031344486e-01
5.0000000000000000e-01 +4.6465920299536627e+00 +0.0000000000000000e+00 +4.9999998445662591e-01 -4.3188013336440821e-04 +0.0000000000000000e+00 +9.9999990673977091e-01
5.9999999999999998e-01 +4.6465445231411531e+00 +0.0000000000000000e+00 +5.9999997314105236e-01 -5.1825611352771309e-04 +0.0000000000000000e+00 +9.9999986570529142e-01
6.9999999999999996e-01 +4.6464883787316493e+00 +0.0000000000000000e+00 +6.9999995734899079e-01 -6.0463207294960308e-04 +0.0000000000000000e+00 +9.9999981721001152e-01
7.9999999999999993e-01 +4.6464235967273106e+00 +0.0000000000000000e+00 +7.9999993633436151e-01 -6.9100800996154061e-04 +0.0000000000000000e+00 +9.9999976125393664e-01
8.9999999999999991e-01 +4.6463501771304498e+00 +0.0000000000000000e+00 +8.9999990935108520e-01 -7.7738392318313907e-04 +0.0000000000000000e+00 +9.9999969783707243e-01
9.9999999999999989e-01 +4.6462681199435032e+00 +0.0000000000000000e+00 +9.9999987565308324e-01 -8.6375981152213874e-04 +0.0000000000000000e+00 +9.9999962695942457e-01
1.0999999999999999e+00 +4.6461774251690020e+00 +0.0000000000000000e+00 +1.0999998344942774e+00 -9.5013567417438717e-04 +0.0000000000000000e+00 +9.9999954862099860e-01
1.2000000000000000e+00 +4.6460780928095424e+00 +0.0000000000000000e+00 +1.1999997851285904e+00 -1.0365115106238235e-03 +0.0000000000000000e+00 +9.9999946282180008e-01
1.3000000000000000e+00 +4.6459701228677588e+00 +0.0000000000000000e+00 +1.2999997268099452e+00 -1.1228873206424678e-03 +0.0000000000000000e+00 +9.9999936956183400e-01
1.4000000000000001e+00 +4.6458535153462934e+00 +0.0000000000000000e+00 +1.3999996587922652e+00 -1.2092631042904141e-03 +0.0000000000000000e+00 +9.9999926884110513e-01
1.5000000000000002e+00 +4.6457282702477682e+00 +0.0000000000000000e+00 +1.4999995803294743e+00 -1.2956388619158278e-03 +0.0000000000000000e+00 +9.9999916065961758e-01
1.6000000000000003e+00 +4.6455943875747563e+00 +0.0000000000000000e+00 +1.5999994906754968e+00 -1.3820145941549481e-03 +0.0000000000000000e+00 +9.9999904501737491e-01
1.7000000000000004e+00 +4.6454518673297525e+00 +0.0000000000000000e+00 +1.6999993890842575e+00 -1.4683903019320941e-03 +0.0000000000000000e+00 +9.9999892191437956e-01
1.8000000000000005e+00 +4.6453007095151451e+00 +0.0000000000000000e+00 +1.7999992748096811e+00 -1.5547659864596753e-03 +0.0000000000000000e+00 +9.9999879135063330e-01
1.9000000000000006e+00 +4.6451409141331856e+00 +0.0000000000000000e+00 +1.8999991471056925e+00 -1.6411416492382062e-03 +0.0000000000000000e+00 +9.9999865332613680e-01
2.0000000000000004e+00 +4.6449724811859632e+00 +0.0000000000000000e+00 +1.9999990052262167e+00 -1.7275172920563260e-03 +0.0000000000000000e+00 +9.9999850784088951e-01
2.1000000000000005e+00 +4.6447954106753713e+00 +0.0000000000000000e+00 +2.0999988484251784e+00 -1.8138929169663465e-03 +0.0000000000000000e+00 +9.9999835489488964e-01
2.2000000000000006e+00 +4.6446097026030975e+00 +0.0000000000000000e+00 +2.1999986759565027e+00 -1.9002685260150459e-03 +0.0000000000000000e+00 +9.9999819448813454e-01
2.3000000000000007e+00 +4.6444153569706375e+00 +0.0000000000000000e+00 +2.2999984870741135e+00 -1.9866441209744610e-03 +0.0000000000000000e+00 +9.9999802662062109e-01
2.4000000000000008e+00 +4.6442123737793226e+00 +0.0000000000000000e+00 +2.3999982810319347e+00 -2.0730197033174491e-03 +0.0000000000000000e+00 +9.9999785129234631e-01
2.5000000000000009e+00 +4.6440007530303546e+00 +0.0000000000000000e+00 +2.4999980570838902e+00 -2.1593952742177320e-03 +0.0000000000000000e+00 +9.9999766850330685e-01
2.6000000000000010e+00 +4.6437804947248313e+00 +0.0000000000000000e+00 +2.5999978144839035e+00 -2.2457708345499437e-03 +0.0000000000000000e+00 +9.9999747825349972e-01
2.7000000000000011e+00 +4.6435515988637777e+00 +0.0000000000000000e+00 +2.6999975524858977e+00 -2.3321463848896820e-03 +0.0000000000000000e+00 +9.9999728054292203e-01
2.8000000000000012e+00 +4.6433140654481768e+00 +0.0000000000000000e+00 +2.7999972703437956e+00 -2.4185219255135671e-03 +0.0000000000000000e+00 +9.9999707537157123e-01
2.9000000000000012e+00 +4.6430678944789987e+00 +0.0000000000000000e+00 +2.8999969673115196e+00 -2.5048974563993028e-03 +0.0000000000000000e+00 +9.9999686273944532e-01
3.0000000000000013e+00 +4.6428130859572319e+00 +0.0000000000000000e+00 +2.9999966426429920e+00 -2.5912729772257425e-03 +0.0000000000000000e+00 +9.9999664264654287e-01
3.1000000000000014e+00 +4.6425496398839092e+00 +0.0000000000000000e+00 +3.0999962955921356e+00 -2.6776484873729609e-03 +0.0000000000000000e+00 +9.9999641509286330e-01
3.2000000000000015e+00 +4.6422775562601428e+00 +0.0000000000000000e+00 +3.1999959254128725e+00 -2.7640239859223295e-03 +0.0000000000000000e+00 +9.9999618007840674e-01
3.3000000000000016e+00 +4.6419968350871512e+00 +0.0000000000000000e+00 +3.2999955313591247e+00 -2.8503994716565957e-03 +0.0000000000000000e+00 +9.9999593760317451e-01
3.4000000000000017e+00 +4.6417074763662889e+00 +0.0000000000000000e+00 +3.3999951126848149e+00 -2.9367749430599700e-03 +0.0000000000000000e+00 +9.9999568766716884e-01
3.5000000000000018e+00 +4.6414094800990773e+00 +0.0000000000000000e+00 +3.4999946686438661e+00 -3.0231503983182131e-03 +0.0000000000000000e+00 +9.9999543027039339e-01
3.6000000000000019e+00 +4.6411028462872332e+00 +0.0000000000000000e+00 +3.5999941984902013e+00 -3.1095258353187319e-03 +0.0000000000000000e+00 +9.9999516541285316e-01
3.7000000000000020e+00 +4.6407875749327019e+00 +0.0000000000000000e+00 +3.6999937014777444e+00 -3.1959012516506779e-03 +0.0000000000000000e+00 +9.9999489309455469e-01
3.8000000000000020e+00 +4.6404636660376823e+00 +0.0000000000000000e+00 +3.7999931768604203e+00 -3.2822766446050505e-03 +0.0000000000000000e+00 +9.9999461331550599e-01
3.9000000000000021e+00 +4.6401311196046597e+00 +0.0000000000000000e+00 +3.8999926238921541e+00 -3.3686520111748056e-03 +0.0000000000000000e+00 +9.9999432607571714e-01
4.0000000000000018e+00 +4.6397899356364363e+00 +0.0000000000000000e+00 +3.9999920418268724e+00 -3.4550273480549688e-03 +0.0000000000000000e+00 +9.9999403137519993e-01
4.1000000000000014e+00 +4.6394401141361579e+00 +0.0000000000000000e+00 +4.0999914299185036e+00 -3.5414026516675640e-03 +0.0000000000000000e+00 +9.9999372921396812e-01
4.2000000000000011e+00 +4.6390816551073319e+00 +0.0000000000000000e+00 +4.1999907874209761e+00 -3.6277779184346994e-03 +0.0000000000000000e+00 +9.9999341959203647e-01
4.3000000000000007e+00 +4.6387145585538105e+00 +0.0000000000000000e+00 +4.2999901135882208e+00 -3.7141531450515862e-03 +0.0000000000000000e+00 +9.9999310250941997e-01
4.4000000000000004e+00 +4.6383388244797610e+00 +0.0000000000000000e+00 +4.3999894076741706e+00 -3.8005283285112868e-03 +0.0000000000000000e+00 +9.9999277796613328e-01
4.5000000000000000e+00 +4.6379544528896375e+00 +0.0000000000000000e+00 +4.4999886689327591e+00 -3.8869034661046203e-03 +0.0000000000000000e+00 +9.9999244596219095e-01
4.5999999999999996e+00 +4.6375614437881501e+00 +0.0000000000000000e+00 +4.5999878966179208e+00 -3.9732785554200626e-03 +0.0000000000000000e+00 +9.9999210649760695e-01
4.6999999999999993e+00 +4.6371597971802343e+00 +0.0000000000000000e+00 +4.6999870899835932e+00 -4.0596535943436375e-03 +0.0000000000000000e+00 +9.9999175957239472e-01
4.7999999999999989e+00 +4.6367495130710221e+00 +0.0000000000000000e+00 +4.7999862482837132e+00 -4.1460285810588022e-03 +0.0000000000000000e+00 +9.9999140518656715e-01
4.8999999999999986e+00 +4.6363305914658133e+00 +0.0000000000000000e+00 +4.8999853707722201e+00 -4.2324035140463194e-03 +0.0000000000000000e+00 +9.9999104334013633e-01
4.9999999999999982e+00 +4.6359030323700443e+00 +0.0000000000000000e+00 +4.9999844567030545e+00 -4.3187783920841287e-03 +0.0000000000000000e+00 +9.9999067403311326e-01
5.0999999999999979e+00 +4.6354668357892592e+00 +0.0000000000000000e+00 +5.0999835053301572e+00 -4.4051532142472070e-03 +0.0000000000000000e+00 +9.9999029726550803e-01
5.1999999999999975e+00 +4.6350220017290784e+00 +0.0000000000000000e+00 +5.1999825159074708e+00 -4.4915279799074169e-03 +0.0000000000000000e+00 +9.9998991303732954e-01
5.2999999999999972e+00 +4.6345685301951720e+00 +0.0000000000000000e+00 +5.2999814876889380e+00 -4.5779026887333560e-03 +0.0000000000000000e+00 +9.9998952134858532e-01
5.3999999999999968e+00 +4.6341064211932279e+00 +0.0000000000000000e+00 +5.3999804199285029e+00 -4.6642773406901893e-03 +0.0000000000000000e+00 +9.9998912219928138e-01
5.4999999999999964e+00 +4.6336356747289216e+00 +0.0000000000000000e+00 +5.4999793118801090e+00 -4.7506519360394801e-03 +0.0000000000000000e+00 +9.9998871558942248e-01
5.5999999999999961e+00 +4.6331562908078885e+00 +0.0000000000000000e+00 +5.5999781627977017e+00 -4.8370264753390107e-03 +0.0000000000000000e+00 +9.9998830151901130e-01
5.6999999999999957e+00 +4.6326682694356940e+00 +0.0000000000000000e+00 +5.6999769719352260e+00 -4.9234009594425919e-03 +0.0000000000000000e+00 +9.9998787998804906e-01
5.7999999999999954e+00 +4.6321716106178021e+00 +0.0000000000000000e+00 +5.7999757385466264e+00 -5.0097753894998718e-03 +0.0000000000000000e+00 +9.9998745099653474e-01
5.8999999999999950e+00 +4.6316663143595482e+00 +0.0000000000000000e+00 +5.8999744618858481e+00 -5.0961497669561292e-03 +0.0000000000000000e+00 +9.9998701454446548e-01
5.9999999999999947e+00 +4.6311523806661068e+00 +0.0000000000000000e+00 +5.9999731412068344e+00 -5.1825240935520637e-03 +0.0000000000000000e+00 +9.9998657063183605e-01
6.0999999999999943e+00 +4.6306298095424658e+00 +0.0000000000000000e+00 +6.0999717757635299e+00 -5.2688983713043711e-03 +0.0000000000000000e+00 +9.9998611925863912e-01
6.1999999999999940e+00 +4.6300986009934046e+00 +0.0000000000000000e+00 +6.1999703648098770e+00 -5.3552726022941333e-03 +0.0000000000000000e+00 +9.9998566042486603e-01
6.2999999999999936e+00 +4.6295587550235009e+00 +0.0000000000000000e+00 +6.2999689075998173e+00 -5.4416467884552903e-03 +0.0000000000000000e+00 +9.9998519413050813e-01
6.3999999999999932e+00 +4.6290102716371484e+00 +0.0000000000000000e+00 +6.3999674033872926e+00 -5.5280209315555356e-03 +0.0000000000000000e+00 +9.9998472037555686e-01
6.4999999999999929e+00 +4.6284531508385713e+00 +0.0000000000000000e+00 +6.4999658514262419e+00 -5.6143950331964702e-03 +0.0000000000000000e+00 +9.9998423916000378e-01
6.5999999999999925e+00 +4.6278873926318429e+00 +0.0000000000000000e+00 +6.5999642509706060e+00 -5.7007690948137684e-03 +0.0000000000000000e+00 +9.9998375048384058e-01
6.6999999999999922e+00 +4.6273129970209004e+00 +0.0000000000000000e+00 +6.6999626012743230e+00 -5.7871431176773494e-03 +0.0000000000000000e+00 +9.9998325434705948e-01
6.7999999999999918e+00 +4.6267299640095620e+00 +0.0000000000000000e+00 +6.7999609015913309e+00 -5.8735171028915538e-03 +0.0000000000000000e+00 +9.9998275074965282e-01
6.8999999999999915e+00 +4.6261382936015449e+00 +0.0000000000000000e+00 +6.8999591511755662e+00 -5.9598910513953326e-03 +0.0000000000000000e+00 +9.9998223969161359e-01
6.9999999999999911e+00 +4.6255379858004799e+00 +0.0000000000000000e+00 +6.9999573492809661e+00 -6.0462649639624402e-03 +0.0000000000000000e+00 +9.9998172117293516e-01
7.0999999999999908e+00 +4.6249290406099295e+00 +0.0000000000000000e+00 +7.0999554951614652e+00 -6.1326388412016354e-03 +0.0000000000000000e+00 +9.9998119519361151e-01
7.1999999999999904e+00 +4.6243114580334019e+00 +0.0000000000000000e+00 +7.1999535880709997e+00 -6.2190126835568920e-03 +0.0000000000000000e+00 +9.9998066175363720e-01
7.2999999999999901e+00 +4.6236852380743709e+00 +0.0000000000000000e+00 +7.2999516272635043e+00 -6.3053864913076157e-03 +0.0000000000000000e+00 +9.9998012085300758e-01
7.3999999999999897e+00 +4.6230503807362897e+00 +0.0000000000000000e+00 +7.3999496119929127e+00 -6.3917602645688675e-03 +0.0000000000000000e+00 +9.9997957249171876e-01
7.4999999999999893e+00 +4.6224068860226080e+00 +0.0000000000000000e+00 +7.4999475415131593e+00 -6.4781340032915970e-03 +0.0000000000000000e+00 +9.9997901666976774e-01
7.5999999999999890e+00 +4.6217547539367896e+00 +0.0000000000000000e+00 +7.5999454150781780e+00 -6.5645077072628817e-03 +0.0000000000000000e+00 +9.9997845338715252e-01
7.6999999999999886e+00 +4.6210939844823260e+00 +0.0000000000000000e+00 +7.6999432319419014e+00 -6.6508813761061757e-03 +0.0000000000000000e+00 +9.9997788264387188e-01
7.7999999999999883e+00 +4.6204245776627566e+00 +0.0000000000000000e+00 +7.7999409913582634e+00 -6.7372550092815644e-03 +0.0000000000000000e+00 +9.9997730443992583e-01
7.8999999999999879e+00 +4.6197465334816821e+00 +0.0000000000000000e+00 +7.8999386925811974e+00 -6.8236286060860277e-03 +0.0000000000000000e+00 +9.9997671877531547e-01
7.9999999999999876e+00 +4.6190598519427803e+00 +0.0000000000000000e+00 +7.9999363348646373e+00 -6.9100021656537097e-03 +0.0000000000000000e+00 +9.9997612565004312e-01
8.0999999999999872e+00 +4.6183645330498262e+00 +0.0000000000000000e+00 +8.0999339174625167e+00 -6.9963756869600687e-03 +0.0000000000000000e+00 +9.9997552506411225e-01
8.1999999999999869e+00 +4.6176605768067018e+00 +0.0000000000000000e+00 +8.1999314396287701e+00 -7.0827491688647670e-03 +0.0000000000000000e+00 +9.9997491701752750e-01
8.2999999999999865e+00 +4.6169479832174067e+00 +0.0000000000000000e+00 +8.2999289006173331e+00 -7.1691226101544088e-03 +0.0000000000000000e+00 +9.9997430151029409e-01
8.3999999999999861e+00 +4.6162267522860674e+00 +0.0000000000000000e+00 +8.3999262996821411e+00 -7.2554960095463361e-03 +0.0000000000000000e+00 +9.9997367854241814e-01
8.4999999999999858e+00 +4.6154968840169390e+00 +0.0000000000000000e+00 +8.4999236360771295e+00 -7.3418693656885246e-03 +0.0000000000000000e+00 +9.9997304811390653e-01
8.5999999999999854e+00 +4.6147583784144182e+00 +0.0000000000000000e+00 +8.5999209090562356e+00 -7.4282426771594742e-03 +0.0000000000000000e+00 +9.9997241022476679e-01
8.6999999999999851e+00 +4.6140112354830460e+00 +0.0000000000000000e+00 +8.6999181178733966e+00 -7.5146159424680963e-03 +0.0000000000000000e+00 +9.9997176487500750e-01
8.7999999999999847e+00 +4.6132554552275158e+00 +0.0000000000000000e+00 +8.7999152617825498e+00 -7.6009891600535952e-03 +0.0000000000000000e+00 +9.9997111206463796e-01
8.8999999999999844e+00 +4.6124910376526804e+00 +0.0000000000000000e+00 +8.8999123400376359e+00 -7.6873623282853474e-03 +0.0000000000000000e+00 +9.9997045179366861e-01
8.9999999999999840e+00 +4.6117179827635599e+00 +0.0000000000000000e+00 +8.9999093518925957e+00 -7.7737354454627729e-03 +0.0000000000000000e+00 +9.9996978406211057e-01
9.0999999999999837e+00 +4.6109362905653484e+00 +0.0000000000000000e+00 +9.0999062966013717e+00 -7.8601085098152067e-03 +0.0000000000000000e+00 +9.9996910886997603e-01
9.1999999999999833e+00 +4.6101459610634192e+00 +0.0000000000000000e+00 +9.1999031734179049e+00 -7.9464815195017646e-03 +0.0000000000000000e+00 +9.9996842621727822e-01
9.2999999999999829e+00 +4.6093469942633343e+00 +0.0000000000000000e+00 +9.2998999815961412e+00 -8.0328544726112009e-03 +0.0000000000000000e+00 +9.9996773610403145e-01
9.3999999999999826e+00 +4.6085393901708489e+00 +0.0000000000000000e+00 +9.3998967203900268e+00 -8.1192273671617677e-03 +0.0000000000000000e+00 +9.9996703853025093e-01
9.4999999999999822e+00 +4.6077231487919219e+00 +0.0000000000000000e+00 +9.4998933890535078e+00 -8.2056002011010650e-03 +0.0000000000000000e+00 +9.9996633349595310e-01
9.5999999999999819e+00 +4.6068982701327199e+00 +0.0000000000000000e+00 +9.5998899868405339e+00 -8.2919729723058937e-03 +0.0000000000000000e+00 +9.9996562100115549e-01
9.6999999999999815e+00 +4.6060647541996254e+00 +0.0000000000000000e+00 +9.6998865130050564e+00 -8.3783456785820921e-03 +0.0000000000000000e+00 +9.9996490104587676e-01
9.7999999999999812e+00 +4.6052226009992436e+00 +0.0000000000000000e+00 +9.7998829668010270e+00 -8.4647183176643805e-03 +0.0000000000000000e+00 +9.9996417363013690e-01
9.8999999999999808e+00 +4.6043718105384102e+00 +0.0000000000000000e+00 +9.8998793474824023e+00 -8.5510908872161954e-03 +0.0000000000000000e+00 +9.9996343875395688e-01
9.9999999999999805e+00 +4.6035123828241984e+00 +0.0000000000000000e+00 +9.9998756543031373e+00 -8.6374633848295204e-03 +0.0000000000000000e+00 +9.9996269641735913e-01
1.0099999999999980e+01 +4.6026443178639251e+00 +0.0000000000000000e+00 +1.0099871886517194e+01 -8.7238358080329245e-03 +0.0000000000000000e+00 +9.9996194662036730e-01
1.0199999999999980e+01 +4.6017676156651541e+00 +0.0000000000000000e+00 +1.0199868043378533e+01 -8.8102081543820678e-03 +0.0000000000000000e+00 +9.9996118936300538e-01
1.0299999999999979e+01 +4.6008822762356880e+00 +0.0000000000000000e+00 +1.0299864124141118e+01 -8.8965804215504832e-03 +0.0000000000000000e+00 +9.9996042464529700e-01
1.0399999999999979e+01 +4.5999882995835568e+00 +0.0000000000000000e+00 +1.0399860128058915e+01 -8.9829526073377710e-03 +0.0000000000000000e+00 +9.9995965246726537e-01
1.0499999999999979e+01 +4.5990856857170028e+00 +0.0000000000000000e+00 +1.0499856054385894e+01 -9.0693247096694952e-03 +0.0000000000000000e+00 +9.9995887282893314e-01
1.0599999999999978e+01 +4.5981744346444700e+00 +0.0000000000000000e+00 +1.0599851902376026e+01 -9.1556967265970773e-03 +0.0000000000000000e+00 +9.9995808573032219e-01
1.0699999999999978e+01 +4.5972545463745913e+00 +0.0000000000000000e+00 +1.0699847671283283e+01 -9.2420686562976872e-03 +0.0000000000000000e+00 +9.9995729117145404e-01
1.0799999999999978e+01 +4.5963260209161749e+00 +0.0000000000000000e+00 +1.0799843360361642e+01 -9.3284404970741305e-03 +0.0000000000000000e+00 +9.9995648915234925e-01
1.0899999999999977e+01 +4.5953888582781932e+00 +0.0000000000000000e+00 +1.0899838968865080e+01 -9.4148122473547372e-03 +0.0000000000000000e+00 +9.9995567967302779e-01
1.0999999999999977e+01 +4.5944430584697686e+00 +0.0000000000000000e+00 +1.0999834496047574e+01 -9.5011839056932407e-03 +0.0000000000000000e+00 +9.9995486273350864e-01
1.1099999999999977e+01 +4.5934886215001631e+00 +0.0000000000000000e+00 +1.1099829941163108e+01 -9.5875554707686647e-03 +0.0000000000000000e+00 +9.9995403833381002e-01
1.1199999999999976e+01 +4.5925255473787638e+00 +0.0000000000000000e+00 +1.1199825303465664e+01 -9.6739269413851983e-03 +0.0000000000000000e+00 +9.9995320647394925e-01
1.1299999999999976e+01 +4.5915538361150707e+00 +0.0000000000000000e+00 +1.1299820582209227e+01 -9.7602983164720714e-03 +0.0000000000000000e+00 +9.9995236715394265e-01
1.1399999999999975e+01 +4.5905734877186850e+00 +0.0000000000000000e+00 +1.1399815776647783e+01 -9.8466695950834311e-03 +0.0000000000000000e+00 +9.9995152037380552e-01
1.1499999999999975e+01 +4.5895845021992967e+00 +0.0000000000000000e+00 +1.1499810886035318e+01 -9.9330407763982120e-03 +0.0000000000000000e+00 +9.9995066613355199e-01
1.1599999999999975e+01 +4.5885868795666713e+00 +0.0000000000000000e+00 +1.1599805909625823e+01 -1.0019411859720004e-02 +0.0000000000000000e+00 +9.9994980443319514e-01
1.1699999999999974e+01 +4.5875806198306384e+00 +0.0000000000000000e+00 +1.1699800846673288e+01 -1.0105782844476916e-02 +0.0000000000000000e+00 +9.9994893527274686e-01
1.1799999999999974e+01 +4.5865657230010770e+00 +0.0000000000000000e+00 +1.1799795696431703e+01 -1.0192153730221445e-02 +0.0000000000000000e+00 +9.9994805865221792e-01
