# multipoles
# s[mm] polynom_b[n=0][T/m^n] polynom_b[n=1][T/m^n] polynom_b[n=2][T/m^n] polynom_b[n=3][T/m^n] polynom_b[n=4][T/m^n] polynom_b[n=5][T/m^n] polynom_b[n=6][T/m^n] 
+0.0000000000000000e+00 -4.3289453120159643e-01 +3.2261028938157901e-04 +4.4020904791090436e-02 +1.6159810334021203e+00 +1.5767816917597429e+02 +2.3855236572708905e+04 +1.3628079298102218e+06 
+1.0000000000000001e-01 -4.3289453113942672e-01 +3.2260305960834379e-04 +4.4018551836581071e-02 +1.6162102147945245e+00 +1.5773231636136751e+02 +2.3853736832823633e+04 +1.3625104452362116e+06 
+2.0000000000000001e-01 -4.3289453095599173e-01 +3.2258276391857713e-04 +4.4012006484780035e-02 +1.6168432726632878e+00 +1.5788201874500186e+02 +2.3849575963468324e+04 +1.3616869261170006e+06 
+3.0000000000000004e-01 -4.3289453065588829e-01 +3.2255149283217966e-04 +4.4002036992051151e-02 +1.6177984664209635e+00 +1.5810820703895621e+02 +2.3843261585892928e+04 +1.3604405850996899e+06 
+4.0000000000000002e-01 -4.3289453024372126e-01 +3.2251133812705217e-04 +4.3989412810808107e-02 +1.6189940217485028e+00 +1.5839178705590561e+02 +2.3835301519341167e+04 +1.3588747598025878e+06 
+5.0000000000000000e-01 -4.3289452972407871e-01 +3.2246439024486486e-04 +4.3974901025198639e-02 +1.6203482026396616e+00 +1.5871371244242087e+02 +2.3826203371322121e+04 +1.3570925540783389e+06 
+5.9999999999999998e-01 -4.3289452910157733e-01 +3.2241273931822860e-04 +4.3959272570027352e-02 +1.6217792816930017e+00 +1.5905486161753768e+02 +2.3816474701592681e+04 +1.3551974330690736e+06 
+6.9999999999999996e-01 -4.3289452838080883e-01 +3.2235847706578311e-04 +4.3943295165754383e-02 +1.6232054905277289e+00 +1.5939617505078724e+02 +2.3806623289363288e+04 +1.3532925653024558e+06 
+7.9999999999999993e-01 -4.3289452756637214e-01 +3.2230369432471005e-04 +4.3927737421065094e-02 +1.6245450914925734e+00 +1.5971857676100828e+02 +2.3797156717751073e+04 +1.3514811950156817e+06 
+8.9999999999999991e-01 -4.3289452666287076e-01 +3.2225048151843981e-04 +4.3913368611951532e-02 +1.6257163644856136e+00 +1.6000297911207861e+02 +2.3788582438070938e+04 +1.3498666165387582e+06 
+9.9999999999999989e-01 -4.3289452567490144e-01 +3.2220092883902547e-04 +4.3900956996654861e-02 +1.6266376112387315e+00 +1.6023031488531376e+02 +2.3781407719301940e+04 +1.3485520226463121e+06 
+1.0999999999999999e+00 -4.3289452460563688e-01 +3.2215644433804534e-04 +4.3891025072298404e-02 +1.6272536123227090e+00 +1.6038759918686551e+02 +2.3775970617298350e+04 +1.3476073690030754e+06 
+1.2000000000000000e+00 -4.3289452345370716e-01 +3.2211639751468681e-04 +4.3883333982024236e-02 +1.6275879339660366e+00 +1.6048060331866827e+02 +2.3772108708661290e+04 +1.3470003844166643e+06 
+1.3000000000000000e+00 -4.3289452221684160e-01 +3.2207978218656190e-04 +4.3877498815449195e-02 +1.6276785623037890e+00 +1.6051869332146512e+02 +2.3769568705652215e+04 +1.3466792112967414e+06 
+1.4000000000000001e+00 -4.3289452089276903e-01 +3.2204559120454525e-04 +4.3873134507340976e-02 +1.6275635122706955e+00 +1.6051123844080607e+02 +2.3768097168496501e+04 +1.3465919778399232e+06 
+1.5000000000000002e+00 -4.3289451947922253e-01 +3.2201281855081236e-04 +4.3869856734456314e-02 +1.6272807607103654e+00 +1.6046759277386687e+02 +2.3767440905670697e+04 +1.3466868875483463e+06 
+1.6000000000000003e+00 -4.3289451797393064e-01 +3.2198045855950350e-04 +4.3867280533278576e-02 +1.6268682743227221e+00 +1.6039712256928590e+02 +2.3767346805916608e+04 +1.3469120886175605e+06 
+1.7000000000000004e+00 -4.3289451637462434e-01 +3.2194750401978039e-04 +4.3865021217348997e-02 +1.6263640639722785e+00 +1.6030918916910406e+02 +2.3767561525910973e+04 +1.3472157530097826e+06 
+1.8000000000000005e+00 -4.3289451467902768e-01 +3.2191294966096666e-04 +4.3862693444176523e-02 +1.6258060754074026e+00 +1.6021316439142427e+02 +2.3767832151427334e+04 +1.3475460114435006e+06 
+1.9000000000000006e+00 -4.3289451288486869e-01 +3.2187579026491878e-04 +4.3859912201844632e-02 +1.6252322501844358e+00 +1.6011841434273629e+02 +2.3767905828280360e+04 +1.3478510224802871e+06 
+2.0000000000000004e+00 -4.3289451098988002e-01 +3.2183502222546092e-04 +4.3856293487682732e-02 +1.6246804601549156e+00 +1.6003428092397999e+02 +2.3767530241610199e+04 +1.3480790814003998e+06 
+2.1000000000000005e+00 -4.3289450899255277e-01 +3.2179003717882173e-04 +4.3851597561324861e-02 +1.6241745510410701e+00 +1.5996669337803746e+02 +2.3766548500698846e+04 +1.3481973690059481e+06 
+2.2000000000000006e+00 -4.3289450689310932e-01 +3.2174112059289202e-04 +4.3845919840829244e-02 +1.6237081432483058e+00 +1.5991364614541709e+02 +2.3765006510846753e+04 +1.3482167952635968e+06 
+2.3000000000000007e+00 -4.3289450469203611e-01 +3.2168867618906176e-04 +4.3839406724507479e-02 +1.6232712578472315e+00 +1.5987191988299529e+02 +2.3762973789188512e+04 +1.3481549274837833e+06 
+2.4000000000000008e+00 -4.3289450238980487e-01 +3.2163310817992144e-04 +4.3832203026048185e-02 +1.6228539189073474e+00 +1.5983832383954348e+02 +2.3760519776940673e+04 +1.3480291999611666e+06 
+2.5000000000000009e+00 -4.3289449998689178e-01 +3.2157481998996371e-04 +4.3824453714628578e-02 +1.6224461726487749e+00 +1.5980966843490907e+02 +2.3757713774291369e+04 +1.3478570281029143e+06 
+2.6000000000000010e+00 -4.3289449748377345e-01 +3.2151421365139840e-04 +4.3816303966859614e-02 +1.6220381151128089e+00 +1.5978275896883852e+02 +2.3754624750964922e+04 +1.3476558531356482e+06 
+2.7000000000000011e+00 -4.3289449488092180e-01 +3.2145169149335248e-04 +4.3807898360955923e-02 +1.6216198444224257e+00 +1.5975441386319574e+02 +2.3751321614292094e+04 +1.3474430463461035e+06 
+2.8000000000000012e+00 -4.3289449217881515e-01 +3.2138765505906604e-04 +4.3799381870226632e-02 +1.6211814903450623e+00 +1.5972144698866677e+02 +2.3747873042775875e+04 +1.3472359903699502e+06 
+2.9000000000000012e+00 -4.3289448937791902e-01 +3.2132250481402307e-04 +4.3790898166139743e-02 +1.6207132196262504e+00 +1.5968069650927791e+02 +2.3744347461377492e+04 +1.3470519508355542e+06 
+3.0000000000000013e+00 -4.3289448647870404e-01 +3.2125663741938167e-04 +4.3782590911862880e-02 +1.6202053398226248e+00 +1.5962900737284994e+02 +2.3740812315307528e+04 +1.3469081337161211e+06 
+3.1000000000000014e+00 -4.3289448348112392e-01 +3.2119019002241193e-04 +4.3774493433795719e-02 +1.6196543979938383e+00 +1.5956547335136463e+02 +2.3737297578390393e+04 +1.3468104243101715e+06 
+3.2000000000000015e+00 -4.3289448038443384e-01 +3.2112278066728100e-04 +4.3766444338440423e-02 +1.6190671437974149e+00 +1.5949315567725796e+02 +2.3733776735427709e+04 +1.3467450422626673e+06 
+3.3000000000000016e+00 -4.3289447718785934e-01 +3.2105396824614094e-04 +4.3758261007159391e-02 +1.6184509168448058e+00 +1.5941558061375696e+02 +2.3730220796040878e+04 +1.3466959189943220e+06 
+3.4000000000000017e+00 -4.3289447389062524e-01 +3.2098331246912626e-04 +4.3749761314287726e-02 +1.6178130125283632e+00 +1.5933626009908630e+02 +2.3726601118024413e+04 +1.3466470736905166e+06 
+3.5000000000000018e+00 -4.3289447049196561e-01 +3.2091037378471389e-04 +4.3740764187116553e-02 +1.6171606913692402e+00 +1.5925868508793982e+02 +2.3722889345892971e+04 +1.3465826335219799e+06 
+3.6000000000000019e+00 -4.3289446699111217e-01 +3.2083471702255183e-04 +4.3731088676616577e-02 +1.6165010699730218e+00 +1.5918633941316494e+02 +2.3719058055865655e+04 +1.3464867788200802e+06 
+3.7000000000000020e+00 -4.3289446338729920e-01 +3.2075590608451416e-04 +4.3720554418114607e-02 +1.6158412711502961e+00 +1.5912269181425179e+02 +2.3715079900999481e+04 +1.3463437793761645e+06 
+3.8000000000000020e+00 -4.3289445967976936e-01 +3.2067350991341319e-04 +4.3708982235918015e-02 +1.6151882518760214e+00 +1.5907118525235592e+02 +2.3710928608069637e+04 +1.3461380430779594e+06 
+3.9000000000000021e+00 -4.3289445586776243e-01 +3.2058709630296668e-04 +4.3696193110601189e-02 +1.6145489800730541e+00 +1.5903525421583620e+02 +2.3706577965487355e+04 +1.3458540404422760e+06 
+4.0000000000000018e+00 -4.3289445195055065e-01 +3.2049624445627800e-04 +4.3682012953331968e-02 +1.6139300636082681e+00 +1.5901822930200191e+02 +2.3702004046015543e+04 +1.3454767764978514e+06 
+4.1000000000000014e+00 -4.3289444792820392e-01 +3.2040084771020768e-04 +4.3666422051000887e-02 +1.6133319682429861e+00 +1.5902050439266139e+02 +2.3697213576922477e+04 +1.3450051348862301e+06 
+4.2000000000000011e+00 -4.3289444380186370e-01 +3.2030132706091166e-04 +4.3649636870606461e-02 +1.6127471729260918e+00 +1.5903814551813036e+02 +2.3692245942351154e+04 +1.3444576859540239e+06 
+4.3000000000000007e+00 -4.3289443957269974e-01 +3.2019816177217075e-04 +4.3631890119248867e-02 +1.6121675894308505e+00 +1.5906692896069103e+02 +2.3687142124759815e+04 +1.3438541919805571e+06 
+4.4000000000000004e+00 -4.3289443524188292e-01 +3.2009182720683601e-04 +4.3613414216927063e-02 +1.6115852666534780e+00 +1.5910264304974098e+02 +2.3681942195463649e+04 +1.3432143282894255e+06 
+4.5000000000000000e+00 -4.3289443081058970e-01 +3.1998279633299462e-04 +4.3594441937592765e-02 +1.6109923558882382e+00 +1.5914107463455360e+02 +2.3676685459477070e+04 +1.3425577525044044e+06 
+4.5999999999999996e+00 -4.3289442627998170e-01 +3.1987154134956836e-04 +4.3575203935091254e-02 +1.6103810567663188e+00 +1.5917805634235341e+02 +2.3671410784595177e+04 +1.3419038797103139e+06 
+4.6999999999999993e+00 -4.3289442165120856e-01 +3.1975852822877817e-04 +4.3555929075503971e-02 +1.6097437839318041e+00 +1.5920946038865242e+02 +2.3666155611887851e+04 +1.3412719099812706e+06 
+4.7999999999999989e+00 -4.3289441692543928e-01 +3.1964422185414064e-04 +4.3536848021381379e-02 +1.6090730158664510e+00 +1.5923113370034037e+02 +2.3660956827573060e+04 +1.3406811264945196e+06 
+4.8999999999999986e+00 -4.3289441210381002e-01 +3.1952908311518388e-04 +4.3518187022050812e-02 +1.6083613850702998e+00 +1.5923901245211133e+02 +2.3655850219536431e+04 +1.3401503625405279e+06 
+4.9999999999999982e+00 -4.3289440718742117e-01 +3.1941355532278846e-04 +4.3500165783233936e-02 +1.6076021402833722e+00 +1.5922918351496924e+02 +2.3650867192993737e+04 +1.3396976077886722e+06 
+5.0999999999999979e+00 -4.3289440217644298e-01 +3.1929777656522344e-04 +4.3482846600067480e-02 +1.6067960848571523e+00 +1.5920081932792345e+02 +2.3645988242561583e+04 +1.3393251644217689e+06 
+5.1999999999999975e+00 -4.3289439706985638e-01 +3.1918153056406770e-04 +4.3466099818953996e-02 +1.6059502175566742e+00 +1.5915655528789591e+02 +2.3641157694775520e+04 +1.3390187264567842e+06 
+5.2999999999999972e+00 -4.3289439186653944e-01 +3.1906457818205988e-04 +4.3449782537925266e-02 +1.6050715696499058e+00 +1.5909923281476955e+02 +2.3636321232937866e+04 +1.3387630872402664e+06 
+5.3999999999999968e+00 -4.3289438656536888e-01 +3.1894668284919078e-04 +4.3433751892955084e-02 +1.6041670607469618e+00 +1.5903168782616777e+02 +2.3631425419798525e+04 +1.3385430915208429e+06 
+5.4999999999999964e+00 -4.3289438116522549e-01 +3.1882761079523263e-04 +4.3417865989105194e-02 +1.6032434952195334e+00 +1.5895673070724470e+02 +2.3626417703750827e+04 +1.3383437389308475e+06 
+5.5999999999999961e+00 -4.3289437566500832e-01 +3.1870713269824388e-04 +4.3401985548208045e-02 +1.6023075155462612e+00 +1.5887711603094053e+02 +2.3621246685384554e+04 +1.3381503244693330e+06 
+5.6999999999999957e+00 -4.3289437006361747e-01 +3.1858502247550851e-04 +4.3385971886188285e-02 +1.6013656298346259e+00 +1.5879557940221565e+02 +2.3615861989508947e+04 +1.3379482702124284e+06 
+5.7999999999999954e+00 -4.3289436435994666e-01 +3.1846105539997456e-04 +4.3369685933997836e-02 +1.6004242696002069e+00 +1.5871485650542522e+02 +2.3610213924502557e+04 +1.3377230343668920e+06 
+5.8999999999999950e+00 -4.3289435855292674e-01 +3.1833501413289759e-04 +4.3352993720288759e-02 +1.5994896103564751e+00 +1.5863757846926765e+02 +2.3604254538206729e+04 +1.3374606075461761e+06 
+5.9999999999999947e+00 -4.3289435264151588e-01 +3.1820670596094760e-04 +4.3335767755844842e-02 +1.5985668347495277e+00 +1.5856620335797419e+02 +2.3597943777017364e+04 +1.3371480864809286e+06 
+6.0999999999999943e+00 -4.3289434662543341e-01 +3.1807620970672441e-04 +4.3318002129927362e-02 +1.5976514476682242e+00 +1.5850054252733528e+02 +2.3591321805383835e+04 +1.3367878975394797e+06 
+6.1999999999999940e+00 -4.3289434050525949e-01 +3.1794379449262555e-04 +4.3299801360776088e-02 +1.5967335332595096e+00 +1.5843828331189809e+02 +2.3584473873822189e+04 +1.3363941449987914e+06 
+6.2999999999999936e+00 -4.3289433428167834e-01 +3.1780972064644465e-04 +4.3281278314584164e-02 +1.5958038116600151e+00 +1.5837697435857149e+02 +2.3577478928293251e+04 +1.3359817545714648e+06 
+6.3999999999999932e+00 -4.3289432795538429e-01 +3.1767424524570107e-04 +4.3262546862588222e-02 +1.5948531517291622e+00 +1.5831415043463821e+02 +2.3570414629184510e+04 +1.3355656991472610e+06 
+6.4999999999999929e+00 -4.3289432152705282e-01 +3.1753762200552570e-04 +4.3243718205358717e-02 +1.5938725655258490e+00 +1.5824740361228004e+02 +2.3563357534415853e+04 +1.3351606451991762e+06 
+6.5999999999999925e+00 -4.3289431499735653e-01 +3.1740009911224686e-04 +4.3224902671486487e-02 +1.5928532699650442e+00 +1.5817435130561185e+02 +2.3556382738671429e+04 +1.3347810972909094e+06 
+6.6999999999999922e+00 -4.3289430836696507e-01 +3.1726192389742975e-04 +4.3206209838009768e-02 +1.5917865501603672e+00 +1.5809263228634302e+02 +2.3549564657800835e+04 +1.3344414207723467e+06 
+6.7999999999999918e+00 -4.3289430163653353e-01 +3.1712333650682647e-04 +4.3187747129449630e-02 +1.5906639470336514e+00 +1.5799993481980889e+02 +2.3542975934757604e+04 +1.3341557036579456e+06 
+6.8999999999999915e+00 -4.3289429480671543e-01 +3.1698457578998505e-04 +4.3169621027105962e-02 +1.5894770871610511e+00 +1.5789397526389644e+02 +2.3536688404443583e+04 +1.3339378529411110e+06 
+6.9999999999999911e+00 -4.3289428787809581e-01 +3.1684585103024818e-04 +4.3151926599908491e-02 +1.5882187301012118e+00 +1.5777273574387064e+02 +2.3530765575781701e+04 +1.3338002678025353e+06 
+7.0999999999999908e+00 -4.3289428085070386e-01 +3.1670715431131281e-04 +4.3134667166135558e-02 +1.5868893857930637e+00 +1.5763625277727888e+02 +2.3525213574332465e+04 +1.3337438631829452e+06 
+7.1999999999999904e+00 -4.3289427372400424e-01 +3.1656835167232200e-04 +4.3117776031389304e-02 +1.5854931685442739e+00 +1.5748595828034954e+02 +2.3520014315764583e+04 +1.3337621102016338e+06 
+7.2999999999999901e+00 -4.3289426649736890e-01 +3.1642932305437146e-04 +4.3101178168598299e-02 +1.5840333046969768e+00 +1.5732346076897281e+02 +2.3515158845007685e+04 +1.3338473166513792e+06 
+7.3999999999999897e+00 -4.3289425917017998e-01 +3.1628995322753524e-04 +4.3084799560083056e-02 +1.5825128063660783e+00 +1.5715035233543287e+02 +2.3510639993891469e+04 +1.3339918440854670e+06 
+7.4999999999999893e+00 -4.3289425174180418e-01 +3.1615013006170280e-04 +4.3068564991986039e-02 +1.5809345646559956e+00 +1.5696823927720533e+02 +2.3506451467123512e+04 +1.3341880200603390e+06 
+7.5999999999999890e+00 -4.3289424421163847e-01 +3.1600974481686602e-04 +4.3052403040871511e-02 +1.5793013396556932e+00 +1.5677865202403916e+02 +2.3502587906364188e+04 +1.3344285532926843e+06 
+7.6999999999999886e+00 -4.3289423657906295e-01 +3.1586869030556848e-04 +4.3036240786572415e-02 +1.5776158178496458e+00 +1.5658314148613408e+02 +2.3499044548542501e+04 +1.3347060884170609e+06 
+7.7999999999999883e+00 -4.3289422884348183e-01 +3.1572686312974146e-04 +4.3020008433389281e-02 +1.5758805407377927e+00 +1.5638319466188705e+02 +2.3495817662551905e+04 +1.3350135967318914e+06 
+7.8999999999999879e+00 -4.3289422100429215e-01 +3.1558416304787196e-04 +4.3003636000694234e-02 +1.5740979227393299e+00 +1.5618029313532932e+02 +2.3492904445506712e+04 +1.3353441118660620e+06 
+7.9999999999999876e+00 -4.3289421306084647e-01 +3.1544043961016414e-04 +4.2987042835775438e-02 +1.5722727496692259e+00 +1.5597624911362547e+02 +2.3490281879977170e+04 +1.3356883159752344e+06 
+8.0999999999999872e+00 -4.3289420501221182e-01 +3.1529521986362253e-04 +4.2970084308614175e-02 +1.5704265197116338e+00 +1.5577504720174244e+02 +2.3487780657470419e+04 +1.3360207084063350e+06 
+8.1999999999999869e+00 -4.3289419685745806e-01 +3.1514792251710014e-04 +4.2952609062548393e-02 +1.5685879702144356e+00 +1.5558122079520578e+02 +2.3485164490741237e+04 +1.3363106838226677e+06 
+8.2999999999999865e+00 -4.3289418859567785e-01 +3.1499794698720704e-04 +4.2934469885029886e-02 +1.5667870313784493e+00 +1.5539916303178603e+02 +2.3482185870686000e+04 +1.3365287582820826e+06 
+8.3999999999999861e+00 -4.3289418022598286e-01 +3.1484468706161024e-04 +4.2915522445466953e-02 +1.5650538663210345e+00 +1.5523320071859686e+02 +2.3478595473375004e+04 +1.3366458437320697e+06 
+8.4999999999999858e+00 -4.3289417174746281e-01 +3.1468753687383344e-04 +4.2895619458453445e-02 +1.5634186107026407e+00 +1.5508771673015386e+02 +2.3474144287960175e+04 +1.3366325975010337e+06 
+8.5999999999999854e+00 -4.3289416315921048e-01 +3.1452589059674659e-04 +4.2874614067785338e-02 +1.5619113863784131e+00 +1.5496708537870501e+02 +2.3468583529502033e+04 +1.3364597285179854e+06 
+8.6999999999999851e+00 -4.3289415446031865e-01 +3.1435914169743531e-04 +4.2852359188810064e-02 +1.5605623206974122e+00 +1.5487568579400994e+02 +2.3461664536007062e+04 +1.3360979329786687e+06 
+8.7999999999999847e+00 -4.3289414564986567e-01 +3.1418668428533910e-04 +4.2828705811618781e-02 +1.5594015083165029e+00 +1.5481793334500981e+02 +2.3453138990651973e+04 +1.3355177473960654e+06 
+8.8999999999999844e+00 -4.3289413672694277e-01 +3.1400791194286632e-04 +4.2803506524232295e-02 +1.5584590408476224e+00 +1.5479821273823217e+02 +2.3442758763037178e+04 +1.3346898654611770e+06 
+8.9999999999999840e+00 -4.3289412769103564e-01 +3.1382248671891539e-04 +4.2776691193811250e-02 +1.5577533185691266e+00 +1.5481883268941260e+02 +2.3430368257442697e+04 +1.3335980915042874e+06 
+9.0999999999999837e+00 -4.3289411854354570e-01 +3.1363138111426957e-04 +4.2748558136410562e-02 +1.5572435419587562e+00 +1.5487192633632088e+02 +2.3416283770519891e+04 +1.3322913973940751e+06 
+9.1999999999999833e+00 -4.3289410928666316e-01 +3.1343594636848269e-04 +4.2719520507476669e-02 +1.5568698276672499e+00 +1.5494646394386291e+02 +2.3400976659458211e+04 +1.3308390649398719e+06 
+9.2999999999999829e+00 -4.3289409992263628e-01 +3.1323754077315294e-04 +4.2689993223434572e-02 +1.5565714286545078e+00 +1.5503147511486995e+02 +2.3384926603027376e+04 +1.3293096054049253e+06 
+9.3999999999999826e+00 -4.3289409045372923e-01 +3.1303752525252383e-04 +4.2660392585006909e-02 +1.5562874891607454e+00 +1.5511598262505606e+02 +2.3368614082047596e+04 +1.3277714358411401e+06 
+9.4999999999999822e+00 -4.3289408088219711e-01 +3.1283725868206015e-04 +4.2631133585957721e-02 +1.5559572697816555e+00 +1.5518903984686312e+02 +2.3352518439300649e+04 +1.3262927822977267e+06 
+9.5999999999999819e+00 -4.3289407121030499e-01 +3.1263809595921069e-04 +4.2602632278544592e-02 +1.5555202100642174e+00 +1.5523968800427497e+02 +2.3337117496565370e+04 +1.3249418734214478e+06 
+9.6999999999999815e+00 -4.3289406144030323e-01 +3.1244138946163471e-04 +4.2575302755232448e-02 +1.5549158885261456e+00 +1.5525701179507956e+02 +2.3322887765472820e+04 +1.3237866822964931e+06 
+9.7999999999999812e+00 -4.3289405157444771e-01 +3.1224848855067577e-04 +4.2549559721957488e-02 +1.5540840325310152e+00 +1.5523009086814085e+02 +2.3310304398606793e+04 +1.3228951538004726e+06 
+9.8999999999999808e+00 -4.3289404161500555e-01 +3.1206074065515842e-04 +4.2525819031913895e-02 +1.5529644990509495e+00 +1.5514799117067025e+02 +2.3299841254667685e+04 +1.3223352401422730e+06 
+9.9999999999999805e+00 -4.3289403156339307e-01 +3.1187896532981410e-04 +4.2504333736810285e-02 +1.5515195038942227e+00 +1.5500401438089531e+02 +2.3291798561246469e+04 +1.3221488486291028e+06 
+1.0099999999999980e+01 -4.3289402141768402e-01 +3.1170205778340368e-04 +4.2484744215840843e-02 +1.5497932694792533e+00 +1.5480728073387363e+02 +2.3285838754689310e+04 +1.3222809842852855e+06 
