# multipoles
# s[mm] polynom_b[n=0][T/m^n] polynom_b[n=1][T/m^n] polynom_b[n=2][T/m^n] polynom_b[n=3][T/m^n] polynom_b[n=4][T/m^n] polynom_b[n=5][T/m^n] polynom_b[n=6][T/m^n] 
+0.0000000000000000e+00 -4.1182054789521616e-01 +1.6799018019764890e-03 -1.4878094351237322e-02 +2.0754077174821099e+01 +9.9944743259675647e+02 -1.3466482399614336e+05 +9.3559363747607404e+05 
+1.0000000000000001e-01 -4.1182051894275706e-01 +1.6923002203223863e-03 -1.4576975797872295e-02 +2.0433652967316561e+01 +9.9998794001155625e+02 -1.3294835613852917e+05 +9.2348338765255362e+05 
+2.0000000000000001e-01 -4.1182048864183068e-01 +1.7032253109343484e-03 -1.4304022693000481e-02 +2.0163990308682898e+01 +1.0014689848797849e+03 -1.3153014573094965e+05 +9.0599926689120464e+05 
+3.0000000000000004e-01 -4.1182045725690808e-01 +1.7127506329280031e-03 -1.4060757437929691e-02 +1.9942577820827225e+01 +1.0039232362810164e+03 -1.3039538105376472e+05 +8.8305419986319239e+05 
+4.0000000000000002e-01 -4.1182042505237121e-01 +1.7209497468284728e-03 -1.3848714511392022e-02 +1.9766904004232575e+01 +1.0073835720464413e+03 -1.2952924937427584e+05 +8.5456024394132721e+05 
+5.0000000000000000e-01 -4.1182039229250184e-01 +1.7278962106209398e-03 -1.3669441365121826e-02 +1.9634457361853769e+01 +1.0118830947445423e+03 -1.2891693771439289e+05 +8.2042851098614780e+05 
+5.9999999999999998e-01 -4.1182035924149557e-01 +1.7336635851251923e-03 -1.3524497122255787e-02 +1.9542726221309987e+01 +1.0174551105013220e+03 -1.2854363178569212e+05 +7.8056925397351745e+05 
+6.9999999999999996e-01 -4.1182032616347553e-01 +1.7383254306881368e-03 -1.3415450488523677e-02 +1.9489198838381579e+01 +1.0241330903827193e+03 -1.2839451663426586e+05 +7.3489204091682588e+05 
+7.9999999999999993e-01 -4.1182029332251285e-01 +1.7419553088620205e-03 -1.3343876981068368e-02 +1.9471363338146787e+01 +1.0319506175132647e+03 -1.2845477629318854e+05 +6.8330600080303836e+05 
+8.9999999999999991e-01 -4.1182026098261021e-01 +1.7446267843402416e-03 -1.3311361185667524e-02 +1.9486707650626183e+01 +1.0409414341734932e+03 -1.2870959341576847e+05 +6.2571958380229713e+05 
+9.9999999999999989e-01 -4.1182022940773300e-01 +1.7464134224169821e-03 -1.3319492617583955e-02 +1.9532719588655453e+01 +1.0511393628821643e+03 -1.2914414975797934e+05 +5.6204093080637907e+05 
+1.0999999999999999e+00 -4.1182019886182114e-01 +1.7473887923256054e-03 -1.3369864021644961e-02 +1.9606886734891688e+01 +1.0625782747976373e+03 -1.2974362550787489e+05 +4.9217801565918530e+05 
+1.2000000000000000e+00 -4.1182016960877882e-01 +1.7476264663494690e-03 -1.3464072737408055e-02 +1.9706696467375131e+01 +1.0752921189037233e+03 -1.3049319945525259e+05 +4.1603849318855890e+05 
+1.3000000000000000e+00 -4.1182014191251631e-01 +1.7472000201888438e-03 -1.3603715345961926e-02 +1.9829635945766061e+01 +1.0893148212799736e+03 -1.3137804892792078e+05 +3.3353016771561949e+05 
+1.4000000000000001e+00 -4.1182011603693419e-01 +1.7461830325210400e-03 -1.3790389488452296e-02 +1.9973192112819412e+01 +1.1046803200242773e+03 -1.3238334979103308e+05 +2.4456082204241827e+05 
+1.5000000000000002e+00 -4.1182009224594601e-01 +1.7446490887404042e-03 -1.4025690875559851e-02 +2.0134851587902283e+01 +1.1214225104787211e+03 -1.3349427586736743e+05 +1.4903846591820681e+05 
+1.6000000000000003e+00 -4.1182007080347627e-01 +1.7426717780079544e-03 -1.4311213628818062e-02 +2.0312100741687374e+01 +1.1395752538882653e+03 -1.3469599935515420e+05 +4.6871283878854832e+04 
+1.7000000000000004e+00 -4.1182005197350369e-01 +1.7403246946232026e-03 -1.4648544514669988e-02 +2.0502425653774505e+01 +1.1591722676263018e+03 -1.3597369060684185e+05 -6.2031850298727877e+04 
+1.8000000000000005e+00 -4.1182003602001682e-01 +1.7376814396070127e-03 -1.5039268769288267e-02 +2.0703312060801544e+01 +1.1802472399859505e+03 -1.3731251783369365e+05 -1.7776193213604891e+05 
+1.9000000000000006e+00 -4.1182002320708372e-01 +1.7348156202803818e-03 -1.5484960946532950e-02 +2.0912245363052296e+01 +1.2028336546718815e+03 -1.3869764715343408e+05 -3.0040899720046011e+05 
+2.0000000000000004e+00 -4.1182001379883226e-01 +1.7318008568261375e-03 -1.5987185750408507e-02 +2.1126710645594500e+01 +1.2269648238056132e+03 -1.4011424372207982e+05 -4.3006238718421134e+05 
+2.1000000000000005e+00 -4.1182000795109830e-01 +1.7287060041482640e-03 -1.6546854758901580e-02 +2.1344331086125202e+01 +1.2526419269985911e+03 -1.4154846859650384e+05 -5.6666178757777507e+05 
+2.2000000000000006e+00 -4.1182000536261232e-01 +1.7255516323229801e-03 -1.7163896141503588e-02 +2.1563639800042797e+01 +1.2797677107624440e+03 -1.4299143072088866e+05 -7.0965332153150975e+05 
+2.3000000000000007e+00 -4.1182000561291360e-01 +1.7223388259065544e-03 -1.7837899713656385e-02 +2.1783484600283654e+01 +1.3082205637775166e+03 -1.4443575422777882e+05 -8.5835848925112397e+05 
+2.4000000000000008e+00 -4.1182000828155640e-01 +1.7190686695394846e-03 -1.8568448669082121e-02 +2.2002713299863636e+01 +1.3378787856952094e+03 -1.4587406438714603e+05 -1.0120984642500170e+06 
+2.5000000000000009e+00 -4.1182001294808462e-01 +1.7157422521605263e-03 -1.9355123891920401e-02 +2.2220173862126654e+01 +1.3686206462152147e+03 -1.4729898818784274e+05 -1.1701943815324423e+06 
+2.6000000000000010e+00 -4.1182001919206140e-01 +1.7123606681634482e-03 -2.0197500403699036e-02 +2.2434714402597770e+01 +1.4003243217692700e+03 -1.4870315444032467e+05 -1.3319670562369961e+06 
+2.7000000000000011e+00 -4.1182002659305689e-01 +1.7089250164797815e-03 -2.1095147966171908e-02 +2.2645183255715327e+01 +1.4328679056371004e+03 -1.5007919426646704e+05 -1.4967370354744899e+06 
+2.8000000000000012e+00 -4.1182003473063300e-01 +1.7054364011181598e-03 -2.2047633279347476e-02 +2.2850428992000772e+01 +1.4661294548779865e+03 -1.5141974128425930e+05 -1.6638248408417082e+06 
+2.9000000000000012e+00 -4.1182004318436971e-01 +1.7018959312177404e-03 -2.3054516044564641e-02 +2.3049300455616887e+01 +1.4999869152820347e+03 -1.5271743192791744e+05 -1.8325506198790702e+06 
+3.0000000000000013e+00 -4.1182005153385703e-01 +1.6983047210389771e-03 -2.4115349660232703e-02 +2.3240646798309335e+01 +1.5343181377660862e+03 -1.5396490572765877e+05 -2.0022342403269473e+06 
+3.1000000000000014e+00 -4.1182005935867483e-01 +1.6946638892719286e-03 -2.5229683682730770e-02 +2.3423317538955672e+01 +1.5690009264917562e+03 -1.5515480575907129e+05 -2.1721955269501354e+06 
+3.2000000000000015e+00 -4.1182006623843220e-01 +1.6909745616490752e-03 -2.6397058308302915e-02 +2.3596162523150209e+01 +1.6039129359072169e+03 -1.5627977850190538e+05 -2.3417537880063928e+06 
+3.3000000000000016e+00 -4.1182007175272933e-01 +1.6872378686954329e-03 -2.7617009095712498e-02 +2.3758032023822057e+01 +1.6389317631999172e+03 -1.5733247451145924e+05 -2.5102282660655393e+06 
+3.4000000000000017e+00 -4.1182007548118771e-01 +1.6834549443400582e-03 -2.8889062696098918e-02 +2.3907776819856011e+01 +1.6739348681695465e+03 -1.5830554896970995e+05 -2.6769377694739918e+06 
+3.5000000000000018e+00 -4.1182007700343271e-01 +1.6796269307073836e-03 -3.0212738850554467e-02 +2.4044248091681059e+01 +1.7087996140380312e+03 -1.5919166117833668e+05 -2.8412008797668507e+06 
+3.6000000000000019e+00 -4.1182007589909408e-01 +1.6757549742852625e-03 -3.1587549942006792e-02 +2.4166297571062547e+01 +1.7434032601129804e+03 -1.5998347551677210e+05 -3.0023359275100245e+06 
+3.7000000000000020e+00 -4.1182007174781637e-01 +1.6718402270029158e-03 -3.3012999500072866e-02 +2.4272777542417206e+01 +1.7776229359421823e+03 -1.6067366153732617e+05 -3.1596608837378086e+06 
+3.8000000000000020e+00 -4.1182006412925898e-01 +1.6678838461922998e-03 -3.4488581757688735e-02 +2.4362540889260693e+01 +1.8113356343877758e+03 -1.6125489435097604e+05 -3.3124933384508546e+06 
+3.9000000000000021e+00 -4.1182005262308613e-01 +1.6638869960162428e-03 -3.6013782747915411e-02 +2.4434441077380548e+01 +1.8444182351696138e+03 -1.6171985459298667e+05 -3.4601506259552292e+06 
+4.0000000000000018e+00 -4.1182003680869000e-01 +1.6598506070308440e-03 -3.7588146072398049e-02 +2.4487341446337823e+01 +1.8767493617177709e+03 -1.6206126469397117e+05 -3.6019584424653784e+06 
+4.1000000000000014e+00 -4.1182001637013166e-01 +1.6557591696632849e-03 -3.9210800009639453e-02 +2.4520949830113050e+01 +1.9082781771948785e+03 -1.6227625948618696e+05 -3.7376736416310314e+06 
+4.2000000000000011e+00 -4.1181999143255110e-01 +1.6515948963953060e-03 -4.0873362434493452e-02 +2.4536526083733381e+01 +1.9389551661774776e+03 -1.6237139892567007e+05 -3.8672507347059026e+06 
+4.3000000000000007e+00 -4.1181996223286732e-01 +1.6473488941304041e-03 -4.2565801882426854e-02 +2.4535625307690456e+01 +1.9686963020782041e+03 -1.6235530213445649e+05 -3.9904709996518982e+06 
+4.4000000000000004e+00 -4.1181992900804143e-01 +1.6430121933370464e-03 -4.4278079673699018e-02 +2.4519807779288374e+01 +1.9974168617990044e+03 -1.6223660944037899e+05 -4.1071119157990562e+06 
+4.5000000000000000e+00 -4.1181989199502694e-01 +1.6385758130187513e-03 -4.6000159104641891e-02 +2.4490633839268778e+01 +2.0250320886888601e+03 -1.6202396039476825e+05 -4.2169505253242431e+06 
+4.5999999999999996e+00 -4.1181985143079775e-01 +1.6340307637866221e-03 -4.7722002146197699e-02 +2.4449663770322196e+01 +2.0514571237272862e+03 -1.6172599296161582e+05 -4.3197630826145215e+06 
+4.6999999999999993e+00 -4.1181980755233538e-01 +1.6293680457100080e-03 -4.9433571127921135e-02 +2.4398457832318641e+01 +2.0766070330161197e+03 -1.6135134362303466e+05 -4.4153251644716263e+06 
+4.7999999999999989e+00 -4.1181976059662473e-01 +1.6245786448449658e-03 -5.1124829809974209e-02 +2.4338576331552677e+01 +2.1003968248996830e+03 -1.6090864766588472e+05 -4.5034117339864513e+06 
+4.8999999999999986e+00 -4.1181971080066637e-01 +1.6196535354950320e-03 -5.2785741654093769e-02 +2.4271579523319211e+01 +2.1227414096718076e+03 -1.6040653851054545e+05 -4.5837969216002766e+06 
+4.9999999999999982e+00 -4.1181965840146567e-01 +1.6145836800368189e-03 -5.4406272044612666e-02 +2.4199027595233044e+01 +2.1435556415881233e+03 -1.5985364753077753e+05 -4.6562542151014786e+06 
+5.0999999999999979e+00 -4.1181960363604464e-01 +1.6093600255313828e-03 -5.5976386291614826e-02 +2.4122480723093059e+01 +2.1627542711325309e+03 -1.5925860423628875e+05 -4.7205561995534441e+06 
+5.1999999999999975e+00 -4.1181954674142640e-01 +1.6039735047173320e-03 -5.7486052617901476e-02 +2.4043499025403786e+01 +2.1802520016863864e+03 -1.5863003594295139e+05 -4.7764748163289409e+06 
+5.2999999999999972e+00 -4.1181948795465251e-01 +1.5984150355539989e-03 -5.8925239587471062e-02 +2.3963642540518656e+01 +2.1959634331849961e+03 -1.5797656751452188e+05 -4.8237810688322745e+06 
+5.3999999999999968e+00 -4.1181942751276701e-01 +1.5926755188798930e-03 -6.0283918785970073e-02 +2.3884471261555106e+01 +2.2098031099154432e+03 -1.5730682145504362e+05 -4.8622452317154044e+06 
+5.4999999999999964e+00 -4.1181936565283039e-01 +1.5867458394819654e-03 -6.1552062950239621e-02 +2.3807545086810890e+01 +2.2216854793635403e+03 -1.5662941754736673e+05 -4.8916366332345130e+06 
+5.5999999999999961e+00 -4.1181930261191535e-01 +1.5806168627840501e-03 -6.2719647122931266e-02 +2.3734423873264088e+01 +2.2315249107765922e+03 -1.5595297302102955e+05 -4.9117237256020019e+06 
+5.6999999999999957e+00 -4.1181923862708342e-01 +1.5742794384833510e-03 -6.3776651550573160e-02 +2.3666667309974326e+01 +2.2392357444673703e+03 -1.5528610174374015e+05 -4.9222742941629980e+06 
+5.7999999999999954e+00 -4.1181917393544876e-01 +1.5677243957602763e-03 -6.4713053968436587e-02 +2.3605835026961032e+01 +2.2447321410570498e+03 -1.5463741474408962e+05 -4.9230547261242904e+06 
+5.8999999999999950e+00 -4.1181910877410433e-01 +1.5609425440143892e-03 -6.5518839273092960e-02 +2.3553486540557589e+01 +2.2479282608355948e+03 -1.5401551978169286e+05 -4.9138308373945318e+06 
+5.9999999999999947e+00 -4.1181904338134739e-01 +1.5539252236929906e-03 -6.6183764588746072e-02 +2.3511165174657513e+01 +2.2487328412781694e+03 -1.5342900719104990e+05 -4.8943464238011604e+06 
+6.0999999999999943e+00 -4.1181897795254258e-01 +1.5466836426649964e-03 -6.6695935783499014e-02 +2.3479769192675903e+01 +2.2469719153915394e+03 -1.5288415559933562e+05 -4.8639512555314377e+06 
+6.1999999999999940e+00 -4.1181891239889146e-01 +1.5392722048561814e-03 -6.7060367888822442e-02 +2.3458839201149726e+01 +2.2427054707429884e+03 -1.5238165613743040e+05 -4.8229363482934227e+06 
+6.2999999999999936e+00 -4.1181884654010925e-01 +1.5317624266169320e-03 -6.7291001193048636e-02 +2.3447404217502150e+01 +2.2361653194728096e+03 -1.5192048136424873e+05 -4.7723236172940163e+06 
+6.3999999999999932e+00 -4.1181878019548762e-01 +1.5242261478694956e-03 -6.7401899873634402e-02 +2.3444485412684415e+01 +2.2275863050277139e+03 -1.5149962866589185e+05 -4.7131452609755993e+06 
+6.4999999999999929e+00 -4.1181871318435798e-01 +1.5167352165730745e-03 -6.7407141916217175e-02 +2.3449103922518095e+01 +2.2172037116284628e+03 -1.5111809604493636e+05 -4.6464359686870044e+06 
+6.5999999999999925e+00 -4.1181864532612844e-01 +1.5093614937499078e-03 -6.7320814594222164e-02 +2.3460280717153388e+01 +2.2052531840456622e+03 -1.5077488142760703e+05 -4.5732325555430064e+06 
+6.6999999999999922e+00 -4.1181857644026315e-01 +1.5021768509903808e-03 -6.7157018233895804e-02 +2.3477036673221065e+01 +2.1919708098405731e+03 -1.5046898309407081e+05 -4.4945743779800087e+06 
+6.7999999999999918e+00 -4.1181850634628159e-01 +1.4952531737544639e-03 -6.6929866799941562e-02 +2.3498392493540926e+01 +2.1775931368867678e+03 -1.5019939927853332e+05 -4.4115034325969191e+06 
+6.8999999999999915e+00 -4.1181843486378189e-01 +1.4886623596770188e-03 -6.6653485721672873e-02 +2.3523368759606420e+01 +2.1623571401195650e+03 -1.4996512849380850e+05 -4.3250642171848109e+06 
+6.9999999999999911e+00 -4.1181836181241249e-01 +1.4824763198957151e-03 -6.6342016153125821e-02 +2.3550985901748483e+01 +2.1465003109080130e+03 -1.4976516940176871e+05 -4.2363041760231508e+06 
+7.0999999999999908e+00 -4.1181828701190104e-01 +1.4767669795900712e-03 -6.6009612143304613e-02 +2.3580264191491946e+01 +2.1302606108416894e+03 -1.4959852080670986e+05 -4.1462734981839731e+06 
+7.1999999999999904e+00 -4.1181821028204146e-01 +1.4716062791767638e-03 -6.5670442882378180e-02 +2.3610223715193523e+01 +2.1138765236446575e+03 -1.4946418154149133e+05 -4.0560253878309536e+06 
+7.2999999999999901e+00 -4.1181813144270746e-01 +1.4670661737078488e-03 -6.5338691667566270e-02 +2.3639884394860012e+01 +2.0975870409006338e+03 -1.4936115061483951e+05 -3.9666160069424626e+06 
+7.3999999999999897e+00 -4.1181805031383922e-01 +1.4632186352371384e-03 -6.5028558384172125e-02 +2.3668265936607433e+01 +2.0816317192780211e+03 -1.4928842697584443e+05 -3.8791047731890525e+06 
+7.4999999999999893e+00 -4.1181796671545368e-01 +1.4601356506476885e-03 -6.4754259076787751e-02 +2.3694387886672477e+01 +2.0662506809542174e+03 -1.4924500983171319e+05 -3.7945543819138426e+06 
+7.5999999999999890e+00 -4.1181788046764672e-01 +1.4578892250387005e-03 -6.4530026018230685e-02 +2.3717269553504234e+01 +2.0516846204775238e+03 -1.4922989827265858e+05 -3.7140308519297815e+06 
+7.6999999999999886e+00 -4.1181779139060370e-01 +1.4565513801497905e-03 -6.4370107319419598e-02 +2.3735930055258677e+01 +2.0381748065914132e+03 -1.4924209156360585e+05 -3.6386035571446698e+06 
+7.7999999999999883e+00 -4.1181769930457912e-01 +1.4561941571446383e-03 -6.4288770333476478e-02 +2.3749388243499258e+01 +2.0259631558796709e+03 -1.4928058873220396e+05 -3.5693455967179863e+06 
+7.8999999999999879e+00 -4.1181760402992101e-01 +1.4568896141072749e-03 -6.4300298955215024e-02 +2.3756662786552006e+01 +2.0152921872545091e+03 -1.4934438909386919e+05 -3.5073335936410967e+06 
+7.9999999999999876e+00 -4.1181750538476841e-01 +1.4587097260093215e-03 -6.4419371568767925e-02 +2.3756741339303758e+01 +2.0064089840899796e+03 -1.4943216336305373e+05 -3.4536492467069784e+06 
+8.0999999999999872e+00 -4.1181740324874339e-01 +1.4617014295419787e-03 -6.4664570872545152e-02 +2.3748554496961052e+01 +1.9996119443596924e+03 -1.4953987780593769e+05 -3.4094426804369134e+06 
+8.1999999999999869e+00 -4.1181729795563043e-01 +1.4658330672810637e-03 -6.5024649804986678e-02 +2.3731589912039489e+01 +1.9947530979365893e+03 -1.4966228078112839e+05 -3.3740085718904263e+06 
+8.2999999999999865e+00 -4.1181719000387407e-01 +1.4710420673961367e-03 -6.5469192167953466e-02 +2.3705337301048598e+01 +1.9914078896621104e+03 -1.4979155164411021e+05 -3.3456493019269430e+06 
+8.3999999999999861e+00 -4.1181707989343025e-01 +1.4772657769492839e-03 -6.5967473571356516e-02 +2.3669248744530165e+01 +1.9891497038714815e+03 -1.4991948711019717e+05 -3.3226768312312500e+06 
+8.4999999999999858e+00 -4.1181696812426166e-01 +1.4844414283249850e-03 -6.6488740141767047e-02 +2.3622778845966181e+01 +1.9875512261806755e+03 -1.5003789587090927e+05 -3.3033996942550442e+06 
+8.5999999999999854e+00 -4.1181685519638783e-01 +1.4925061371252009e-03 -6.7002201009907073e-02 +2.3565384764423854e+01 +1.9861842944349416e+03 -1.5013859869953798e+05 -3.2861222859773235e+06 
+8.6999999999999851e+00 -4.1181674160983694e-01 +1.5013968984544030e-03 -6.7477033355081220e-02 +2.3496526306915413e+01 +1.9846199890973051e+03 -1.5021342892439864e+05 -3.2691452835546434e+06 
+8.7999999999999847e+00 -4.1181662786466655e-01 +1.5110505826726279e-03 -6.7882378865586554e-02 +2.3415666022881446e+01 +1.9824285612180745e+03 -1.5025423288912320e+05 -3.2507653010411542e+06 
+8.8999999999999844e+00 -4.1181651446096473e-01 +1.5214039343134434e-03 -6.8187342308757642e-02 +2.3322269212191827e+01 +1.9791793982927575e+03 -1.5025286992178592e+05 -3.2292747184059951e+06 
+8.9999999999999840e+00 -4.1181640189884183e-01 +1.5323935657356373e-03 -6.8360991741195407e-02 +2.3215804092666509e+01 +1.9744410232904445e+03 -1.5020121324385944e+05 -3.2029616719344263e+06 
+9.0999999999999837e+00 -4.1181629067842751e-01 +1.5439559551708305e-03 -6.8372357706003889e-02 +2.3095741828144245e+01 +1.9677810736152865e+03 -1.5009115004293225e+05 -3.1701099476560350e+06 
+9.1999999999999833e+00 -4.1181618129989400e-01 +1.5560274434193622e-03 -6.8190429048651288e-02 +2.2961556599980689e+01 +1.9587662147142983e+03 -1.4991458181058435e+05 -3.1289985635912572e+06 
+9.2999999999999829e+00 -4.1181607426341427e-01 +1.5685442303521723e-03 -6.7784157813347803e-02 +2.2812725693946412e+01 +1.9469622314152009e+03 -1.4966342478846098e+05 -3.0779022050990933e+06 
+9.3999999999999826e+00 -4.1181597006920440e-01 +1.5814423702560710e-03 -6.7122451976089639e-02 +2.2648729605919105e+01 +1.9319338787738377e+03 -1.4932961048963733e+05 -3.0150904988519540e+06 
+9.4999999999999822e+00 -4.1181586921749130e-01 +1.5946577698974721e-03 -6.6174178957424681e-02 +2.2469052077900045e+01 +1.9132449464736119e+03 -1.4890508583990744e+05 -2.9388283200495318e+06 
+9.5999999999999819e+00 -4.1181577220852733e-01 +1.6081261843508114e-03 -6.4908162687099147e-02 +2.2273180195582231e+01 +1.8904581967619213e+03 -1.4838181366670894e+05 -2.8473754897635519e+06 
+9.6999999999999815e+00 -4.1181567954259413e-01 +1.6217832146533560e-03 -6.3293181980072277e-02 +2.2060604440100168e+01 +1.8631353275322538e+03 -1.4775177293933331e+05 -2.7389865936420071e+06 
+9.7999999999999812e+00 -4.1181559171997817e-01 +1.6355643022598655e-03 -6.1297972504898095e-02 +2.1830818819906071e+01 +1.8308370040454843e+03 -1.4700695944539661e+05 -2.6119111251211856e+06 
+9.8999999999999808e+00 -4.1181550924099808e-01 +1.6494047262221143e-03 -5.8891222410733954e-02 +2.1583320932276507e+01 +1.7931227709216844e+03 -1.4613938607338179e+05 -2.4643930650677904e+06 
+9.9999999999999805e+00 -4.1181543260632292e-01 +1.6632387726200736e-03 -5.6041601484164483e-02 +2.1317662333287860e+01 +1.7495555770308965e+03 -1.4514138433904052e+05 -2.2947004139361000e+06 
+1.0099999999999980e+01 -4.1181536218808240e-01 +1.6769984452928693e-03 -5.2724534011194223e-02 +2.1033812346006961e+01 +1.6998289173134658e+03 -1.4400815077334759e+05 -2.1017388743522018e+06 
