# multipoles
# s[mm] polynom_b[n=0][T/m^n] polynom_b[n=1][T/m^n] polynom_b[n=2][T/m^n] polynom_b[n=3][T/m^n] polynom_b[n=4][T/m^n] polynom_b[n=5][T/m^n] polynom_b[n=6][T/m^n] 
+0.0000000000000000e+00 -1.7319779562604687e-01 -3.6078509119098767e-04 +1.5116907223528472e-01 +7.6589759616717323e+00 -1.0863040317950181e+03 -3.3089796943723217e+04 +4.8628910006235465e+06 
+1.0000000000000001e-01 -1.7319779404847299e-01 -3.6415461823610808e-04 +1.5083880589787099e-01 +7.7376619406613010e+00 -1.0941532398979891e+03 -3.3657018653922336e+04 +4.9310448943237551e+06 
+2.0000000000000001e-01 -1.7319779085188319e-01 -3.6742881419656823e-04 +1.5044257782434106e-01 +7.8122422839792112e+00 -1.1020074751375569e+03 -3.4197603143390064e+04 +5.0020357926879022e+06 
+3.0000000000000004e-01 -1.7319778619719367e-01 -3.7061631059791923e-04 +1.4998573661227221e-01 +7.8828722175637642e+00 -1.1098447744063676e+03 -3.4711855517872267e+04 +5.0754607313416302e+06 
+4.0000000000000002e-01 -1.7319778024533711e-01 -3.7372573503947725e-04 +1.4947363311712841e-01 +7.9497069004320480e+00 -1.1176432181754683e+03 -3.5200080681349937e+04 +5.1509169505146900e+06 
+5.0000000000000000e-01 -1.7319777315724008e-01 -3.7676571335227475e-04 +1.4891161756478086e-01 +8.0129014788403783e+00 -1.1253808756468875e+03 -3.5662583608872490e+04 +5.2280016352795502e+06 
+5.9999999999999998e-01 -1.7319776509383805e-01 -3.7974486856070144e-04 +1.4830504153426641e-01 +8.0726110479439477e+00 -1.1330358427908225e+03 -3.6099669087517163e+04 +5.3063120955509702e+06 
+6.9999999999999996e-01 -1.7319775621606764e-01 -3.8267182300331096e-04 +1.4765925701258933e-01 +8.1289907003534196e+00 -1.1405862249766496e+03 -3.6511641945175114e+04 +5.3854456853304049e+06 
+7.9999999999999993e-01 -1.7319774668486762e-01 -3.8555519873034960e-04 +1.4697961638760051e-01 +8.1821955311820229e+00 -1.1480101357421202e+03 -3.6898807046553309e+04 +5.4649997931080544e+06 
+8.9999999999999991e-01 -1.7319773666118043e-01 -3.8840361825932064e-04 +1.4627147288832676e-01 +8.2323806496324057e+00 -1.1552857070932268e+03 -3.7261469314785070e+04 +5.5445718952975944e+06 
+9.9999999999999989e-01 -1.7319772630594962e-01 -3.9122570487167756e-04 +1.4554018011633710e-01 +8.2797011773994402e+00 -1.1623910794490955e+03 -3.7599933679349931e+04 +5.6237595048866970e+06 
+1.0999999999999999e+00 -1.7319771578011697e-01 -3.9403008437610833e-04 +1.4479109168602294e-01 +8.3243122913101733e+00 -1.1693043952618175e+03 -3.7914505283538711e+04 +5.7021601421520924e+06 
+1.2000000000000000e+00 -1.7319770524462938e-01 -3.9682538495553599e-04 +1.4402956221826127e-01 +8.3663692090292798e+00 -1.1760038183834847e+03 -3.8205489357726743e+04 +5.7793714268106278e+06 
+1.3000000000000000e+00 -1.7319769486043335e-01 -3.9962023801792346e-04 +1.4326094656205751e-01 +8.4060272027125951e+00 -1.1824675189663185e+03 -3.8473191253305624e+04 +5.8549910051369965e+06 
+1.4000000000000001e+00 -1.7319768478847633e-01 -4.0242327974082746e-04 +1.4249060010571993e-01 +8.4434416373373029e+00 -1.1886736804530562e+03 -3.8717916629787542e+04 +5.9286165854879757e+06 
+1.5000000000000002e+00 -1.7319767518970394e-01 -4.0524315057239186e-04 +1.4172387825040328e-01 +8.4787679438050851e+00 -1.1946004883802937e+03 -3.8939971249910908e+04 +5.9998458815861214e+06 
+1.6000000000000003e+00 -1.7319766622506291e-01 -4.0808849746120420e-04 +1.4096613700680616e-01 +8.5121616773057198e+00 -1.2002261432202451e+03 -3.9139661283710651e+04 +6.0682766765228491e+06 
+1.7000000000000004e+00 -1.7319765805549545e-01 -4.1096797335727486e-04 +1.4022273211768446e-01 +8.5437784897922011e+00 -1.2055288427731896e+03 -3.9317293097757982e+04 +6.1335067366196197e+06 
+1.8000000000000005e+00 -1.7319765084194794e-01 -4.1389023853474717e-04 +1.3949902032616068e-01 +8.5737741601711139e+00 -1.2104868075550160e+03 -3.9473173390353018e+04 +6.1951339343539625e+06 
+1.9000000000000006e+00 -1.7319764474536065e-01 -4.1686396125331784e-04 +1.3880035798125689e-01 +8.6023046053700760e+00 -1.2150782534438940e+03 -3.9607609219367027e+04 +6.2527561159469308e+06 
+2.0000000000000004e+00 -1.7319763992667472e-01 -4.1989781847952279e-04 +1.3813210205981025e-01 +8.6295258901919958e+00 -1.2192814120762546e+03 -3.9720907996669790e+04 +6.3059712012080587e+06 
+2.1000000000000005e+00 -1.7319763650378994e-01 -4.2299606199133971e-04 +1.3749919891982706e-01 +8.6555720317912961e+00 -1.2230879924636245e+03 -3.9813505365367921e+04 +6.3544934992344305e+06 
+2.2000000000000006e+00 -1.7319763442297956e-01 -4.2615152509284821e-04 +1.3690472641174609e-01 +8.6806898677164348e+00 -1.2265454069494581e+03 -3.9887633119903672e+04 +6.3985345044355961e+06 
+2.3000000000000007e+00 -1.7319763358764367e-01 -4.2935582188853458e-04 +1.3635125724975145e-01 +8.7052092821347973e+00 -1.2297162273040585e+03 -3.9946327876862175e+04 +6.4384433810726125e+06 
+2.4000000000000008e+00 -1.7319763390118237e-01 -4.3260057127030358e-04 +1.3584136363435809e-01 +8.7294602801196071e+00 -1.2326630179852741e+03 -3.9992626881182317e+04 +6.4745692748776721e+06 
+2.5000000000000009e+00 -1.7319763526699930e-01 -4.3587739517093589e-04 +1.3537761762335004e-01 +8.7537729163418323e+00 -1.2354483408824469e+03 -4.0029567511121233e+04 +6.5072613257390857e+06 
+2.6000000000000010e+00 -1.7319763758849005e-01 -4.3917791971015137e-04 +1.3496258938872877e-01 +8.7784773300465933e+00 -1.2381347204238175e+03 -4.0060187490054508e+04 +6.5368684993424993e+06 
+2.7000000000000011e+00 -1.7319764076905431e-01 -4.4249377407334028e-04 +1.3459884887427598e-01 +8.8039037152826953e+00 -1.2407846766553439e+03 -4.0087524727053751e+04 +6.5637397492424501e+06 
+2.8000000000000012e+00 -1.7319764471208993e-01 -4.4581659064762790e-04 +1.3428896475585345e-01 +8.8303823209266294e+00 -1.2434607034522319e+03 -4.0114617312099479e+04 +6.5882239095160980e+06 
+2.9000000000000012e+00 -1.7319764932099277e-01 -4.4913800570419967e-04 +1.3403550452113197e-01 +8.8582434765874574e+00 -1.2462252715396562e+03 -4.0144503686858850e+04 +6.6106697149007749e+06 
+3.0000000000000013e+00 -1.7319765449915642e-01 -4.5244965839766804e-04 +1.3384103413172108e-01 +8.8878175611924721e+00 -1.2491408197961405e+03 -4.0180222461648431e+04 +6.6314257544160429e+06 
+3.1000000000000014e+00 -1.7319766014997240e-01 -4.5574319063856992e-04 +1.3370811813551592e-01 +8.9194350003653255e+00 -1.2522697590111286e+03 -4.0224812409509817e+04 +6.6508404953585230e+06 
+3.2000000000000015e+00 -1.7319766617683546e-01 -4.5901024840352018e-04 +1.3363932014065474e-01 +8.9534263070744302e+00 -1.2556744792333002e+03 -4.0281312711977567e+04 +6.6692623144660061e+06 
+3.3000000000000016e+00 -1.7319767248313450e-01 -4.6224248030757613e-04 +1.3363720161062947e-01 +8.9901220394251915e+00 -1.2594173273728754e+03 -4.0352762719114195e+04 +6.6870393950445922e+06 
+3.4000000000000017e+00 -1.7319767897225355e-01 -4.6543153768001893e-04 +1.3370432198345672e-01 +9.0298528042727018e+00 -1.2635606095691687e+03 -4.0442201979362209e+04 +6.7045197396414829e+06 
+3.5000000000000018e+00 -1.7319768554758452e-01 -4.6856907501033318e-04 +1.3384323997161904e-01 +9.0729492706766557e+00 -1.2681666141391017e+03 -4.0552670323421356e+04 +6.7220512753833700e+06 
+3.6000000000000019e+00 -1.7319769211250677e-01 -4.7164675013128081e-04 +1.3405651111228850e-01 +9.1197421772522809e+00 -1.2732975664036837e+03 -4.0687207917706248e+04 +6.7399816452359594e+06 
+3.7000000000000020e+00 -1.7319769857040543e-01 -4.7465622298754933e-04 +1.3434668987910284e-01 +9.1705622951676578e+00 -1.2790156676816025e+03 -4.0848855052271334e+04 +6.7586583908850960e+06 
+3.8000000000000020e+00 -1.7319770482465749e-01 -4.7758915642399046e-04 +1.3471632780574924e-01 +9.2257404545482533e+00 -1.2853830590726802e+03 -4.1040652307877346e+04 +6.7784287811649079e+06 
+3.9000000000000021e+00 -1.7319771077864254e-01 -4.8043721661906335e-04 +1.3516797491431590e-01 +9.2856075546830148e+00 -1.2924618498148116e+03 -4.1265640613748401e+04 +6.7996399509742912e+06 
+4.0000000000000018e+00 -1.7319771633573100e-01 -4.8319206798334065e-04 +1.3570417792208808e-01 +9.3504942106887849e+00 -1.3003141111336126e+03 -4.1526859545332787e+04 +6.8226388932017935e+06 
+4.1000000000000014e+00 -1.7319772143112225e-01 -4.8584958683730656e-04 +1.3632599344264293e-01 +9.4205570848172311e+00 -1.3089888394964873e+03 -4.1826033748356582e+04 +6.8477483059867499e+06 
+4.2000000000000011e+00 -1.7319772613764059e-01 -4.8841547528355607e-04 +1.3703051954864845e-01 +9.4953690543926683e+00 -1.3184858628542997e+03 -4.2160434751549110e+04 +6.8751374661350474e+06 
+4.3000000000000007e+00 -1.7319773056492346e-01 -4.9089591153349884e-04 +1.3781426436303507e-01 +9.5743595094028944e+00 -1.3287935212734110e+03 -4.2526270268139298e+04 +6.9049254498340329e+06 
+4.4000000000000004e+00 -1.7319773482261500e-01 -4.9329706685950357e-04 +1.3867373784286699e-01 +9.6569576361976104e+00 -1.3399001859478888e+03 -4.2919746910679583e+04 +6.9372314534286866e+06 
+4.5000000000000000e+00 -1.7319773902035820e-01 -4.9562510743751350e-04 +1.3960545132011770e-01 +9.7425924945834925e+00 -1.3517942558064233e+03 -4.3337070818941895e+04 +6.9721748023343319e+06 
+4.5999999999999996e+00 -1.7319774326781046e-01 -4.9788619437450001e-04 +1.4060591949384577e-01 +9.8306930248641944e+00 -1.3644641947092946e+03 -4.3774447731694789e+04 +7.0098751245317981e+06 
+4.6999999999999993e+00 -1.7319774767463181e-01 -5.0008648164691469e-04 +1.4167165914418922e-01 +9.9206879885546009e+00 -1.3778985076804729e+03 -4.4228082656754610e+04 +7.0504522393343272e+06 
+4.7999999999999989e+00 -1.7319775235049259e-01 -5.0223211801154013e-04 +1.4279919020435000e-01 +1.0012006028164556e+01 -1.3920857614110075e+03 -4.4694180241174843e+04 +7.0940262537632473e+06 
+4.8999999999999986e+00 -1.7319775740506979e-01 -5.0432924476782382e-04 +1.4398503531021564e-01 +1.0104075606338281e+01 -1.4070145749960445e+03 -4.5168944444968045e+04 +7.1407175163794467e+06 
+4.9999999999999982e+00 -1.7319776294804570e-01 -5.0638399583659570e-04 +1.4522571993667116e-01 +1.0196325009815968e+01 -1.4226736238761919e+03 -4.5648578579776520e+04 +7.1906466386995288e+06 
+5.0999999999999979e+00 -1.7319776908911519e-01 -5.0840249751532660e-04 +1.4651777322952783e-01 +1.0288182345595983e+01 -1.4390516545140874e+03 -4.6129285308754675e+04 +7.2439345609316081e+06 
+5.1999999999999975e+00 -1.7319777593798250e-01 -5.1039086799451686e-04 +1.4785772785847395e-01 +1.0379075530212646e+01 -1.4561374823303818e+03 -4.6607266606206336e+04 +7.3007025432330798e+06 
+5.2999999999999972e+00 -1.7319778360435514e-01 -5.1235521656938182e-04 +1.4924211934635023e-01 +1.0468432271842426e+01 -1.4739199793517314e+03 -4.7078723681542950e+04 +7.3610721080747703e+06 
+5.3999999999999968e+00 -1.7319779219795922e-01 -5.1430164351786334e-04 +1.5066748800523289e-01 +1.0555680066834089e+01 -1.4923881100230949e+03 -4.7539856970878427e+04 +7.4251652058065124e+06 
+5.4999999999999964e+00 -1.7319780182852396e-01 -5.1623623949213651e-04 +1.5213037728698559e-01 +1.0640246186561381e+01 -1.5115309012006235e+03 -4.7986866086716473e+04 +7.4931040757707506e+06 
+5.5999999999999961e+00 -1.7319781260579037e-01 -5.1816508525538338e-04 +1.5362733485179200e-01 +1.0721557674420216e+01 -1.5313374618818414e+03 -4.8415949826523000e+04 +7.5650113375390777e+06 
+5.6999999999999957e+00 -1.7319782463951444e-01 -5.2009425094156822e-04 +1.5515491313143379e-01 +1.0799041324300328e+01 -1.5517969938437595e+03 -4.8823306059088267e+04 +7.6410100399951609e+06 
+5.7999999999999954e+00 -1.7319783803945846e-01 -5.2202979575421038e-04 +1.5670966836082514e-01 +1.0872123678388173e+01 -1.5728987739853271e+03 -4.9205131744802733e+04 +7.7212235795137752e+06 
+5.8999999999999950e+00 -1.7319785291539735e-01 -5.2397776781692789e-04 +1.5828816147884456e-01 +1.0940231023350494e+01 -1.5946321709805677e+03 -4.9557622926826800e+04 +7.8057757764255777e+06 
+5.9999999999999947e+00 -1.7319786937713599e-01 -5.2594421974877840e-04 +1.5988695979017095e-01 +1.1002790721084422e+01 -1.6169865531893508e+03 -4.9876982222581442e+04 +7.8947902403946090e+06 
+6.0999999999999943e+00 -1.7319788749844700e-01 -5.2793263219653758e-04 +1.6150377721489703e-01 +1.1059501329856024e+01 -1.6399477159283672e+03 -5.0161344581788857e+04 +7.9883001971469987e+06 
+6.1999999999999940e+00 -1.7319790718447881e-01 -5.2994025979850564e-04 +1.6313695273045864e-01 +1.1110650963338404e+01 -1.6634676298158213e+03 -5.0412897866490988e+04 +8.0859904758035857e+06 
+6.2999999999999936e+00 -1.7319792829316563e-01 -5.3196392165185346e-04 +1.6478421386854353e-01 +1.1156589526581023e+01 -1.6874823158220947e+03 -5.0634113502342654e+04 +8.1874316869764486e+06 
+6.3999999999999932e+00 -1.7319795068243488e-01 -5.3400042962641428e-04 +1.6644328534806593e-01 +1.1197666414124358e+01 -1.7119277004056428e+03 -5.0827457966668757e+04 +8.2921937830780549e+06 
+6.4999999999999929e+00 -1.7319797421020958e-01 -5.3604660004813530e-04 +1.6811188981579328e-01 +1.1234231141257597e+01 -1.7367396637364016e+03 -5.0995398114869589e+04 +8.3998464859379213e+06 
+6.5999999999999925e+00 -1.7319799873439010e-01 -5.3809925197264641e-04 +1.6978774553142301e-01 +1.1266633288947334e+01 -1.7618539965178643e+03 -5.1140400834659034e+04 +8.5099590854861978e+06 
+6.6999999999999922e+00 -1.7319802411288177e-01 -5.4015520849571457e-04 +1.7146856973556096e-01 +1.1295222542768434e+01 -1.7872064630117009e+03 -5.1264933256012147e+04 +8.6221007349482793e+06 
+6.7999999999999918e+00 -1.7319805020357426e-01 -5.4221129685815364e-04 +1.7315207596881768e-01 +1.1320348696681954e+01 -1.8127327497669999e+03 -5.1371462762585230e+04 +8.7358402082415596e+06 
+6.8999999999999915e+00 -1.7319807686434543e-01 -5.4426434797534204e-04 +1.7483597449937419e-01 +1.1342361637430008e+01 -1.8383684740544647e+03 -5.1462456878981771e+04 +8.8507459408313241e+06 
+6.9999999999999911e+00 -1.7319810395306875e-01 -5.4631119738328014e-04 +1.7651797317856890e-01 +1.1361611371228516e+01 -1.8640491995496379e+03 -5.1540383409100788e+04 +8.9663861025437880e+06 
+7.0999999999999908e+00 -1.7319813132760098e-01 -5.4834868534514591e-04 +1.7819577575479092e-01 +1.1378448028361985e+01 -1.8897104036932067e+03 -5.1607710450949213e+04 +9.0823284421092905e+06 
+7.1999999999999904e+00 -1.7319815884579146e-01 -5.5037365645330789e-04 +1.7986708311286345e-01 +1.1393221849158582e+01 -1.9152875021699310e+03 -5.1666906293679138e+04 +9.1981404055592529e+06 
+7.2999999999999901e+00 -1.7319818636547826e-01 -5.5238296024148639e-04 +1.8152959247705913e-01 +1.1406283202155494e+01 -1.9407158316086716e+03 -5.1720439509489246e+04 +9.3133890489455871e+06 
+7.3999999999999897e+00 -1.7319821374448233e-01 -5.5437345174969520e-04 +1.8318099683621625e-01 +1.1417982600054330e+01 -1.9659306405979992e+03 -5.1770779028723788e+04 +9.4276410016091354e+06 
+7.4999999999999893e+00 -1.7319824084061855e-01 -5.5634199089130262e-04 +1.8481898613452086e-01 +1.1428670680934109e+01 -1.9908671105495653e+03 -5.1820394014400605e+04 +9.5404625599153526e+06 
+7.5999999999999890e+00 -1.7319826751168732e-01 -5.5828544315930520e-04 +1.8644124611623006e-01 +1.1438698227598884e+01 -2.0154603339329228e+03 -5.1871753956951303e+04 +9.6514195856407546e+06 
+7.6999999999999886e+00 -1.7319829361547270e-01 -5.6020067952675860e-04 +1.8804545806862275e-01 +1.1448416164489876e+01 -2.0396453092281727e+03 -5.1927328640848318e+04 +9.7600774816195685e+06 
+7.7999999999999883e+00 -1.7319831900974444e-01 -5.6208457769274468e-04 +1.8962929895052238e-01 +1.1458175594626873e+01 -2.0633569431120409e+03 -5.1989588343429838e+04 +9.8660012020759489e+06 
+7.8999999999999879e+00 -1.7319834355226577e-01 -5.6393402036209947e-04 +1.9119044236447280e-01 +1.1468327745589848e+01 -2.0865300686191185e+03 -5.2061003497692713e+04 +9.9687553374633137e+06 
+7.9999999999999876e+00 -1.7319836710076611e-01 -5.6574587370611309e-04 +1.9272655611245079e-01 +1.1479222318793216e+01 -2.1090995338019729e+03 -5.2144032604309679e+04 +1.0067904982505750e+07 
+8.0999999999999872e+00 -1.7319838954243399e-01 -5.6751600901705328e-04 +1.9423528708231860e-01 +1.1491046210056279e+01 -2.1310082990021133e+03 -5.2239919290992984e+04 +1.0163095966457130e+07 
+8.1999999999999869e+00 -1.7319841089762883e-01 -5.6923215736858098e-04 +1.9571586147186482e-01 +1.1503641469692436e+01 -2.1522364748782384e+03 -5.2347841508324149e+04 +1.0254242913793167e+07 
+8.2999999999999865e+00 -1.7319843122321807e-01 -5.7087880562000227e-04 +1.9716812580323470e-01 +1.1516822263959323e+01 -2.1727772568531082e+03 -5.2467049839518411e+04 +1.0341349278068755e+07 
+8.3999999999999861e+00 -1.7319845057609984e-01 -5.7244045997602853e-04 +1.9859192914838486e-01 +1.1530403994757132e+01 -2.1926239627357031e+03 -5.2596805050068520e+04 +1.0424419448764468e+07 
+8.4999999999999858e+00 -1.7319846901317562e-01 -5.7390162796462250e-04 +1.9998711903580768e-01 +1.1544202091184054e+01 -2.2117698703416372e+03 -5.2736368284854783e+04 +1.0503457600423021e+07 
+8.5999999999999854e+00 -1.7319848659137702e-01 -5.7524681841125073e-04 +2.0135354475019160e-01 +1.1558032009215468e+01 -2.2302082796485674e+03 -5.2885001074997221e+04 +1.0578467985169988e+07 
+8.6999999999999851e+00 -1.7319850336764664e-01 -5.7646054230993502e-04 +2.0269105481139910e-01 +1.1571709255855358e+01 -2.2479324641968706e+03 -5.3041965484443353e+04 +1.0649454701172762e+07 
+8.7999999999999847e+00 -1.7319851939895115e-01 -5.7752731184285003e-04 +2.0399949862210975e-01 +1.1585049361408112e+01 -2.2649357026584257e+03 -5.3206523961107618e+04 +1.0716421842422385e+07 
+8.8999999999999844e+00 -1.7319853474226934e-01 -5.7843164005389304e-04 +2.0527872497196015e-01 +1.1597867868770852e+01 -2.2812112504023403e+03 -5.3377939280476923e+04 +1.0779373364518547e+07 
+8.9999999999999840e+00 -1.7319854945460589e-01 -5.7915804230412188e-04 +2.0652858359259432e-01 +1.1609980375894061e+01 -2.2967523680648014e+03 -5.3555474800278105e+04 +1.0838313217123695e+07 
+9.0999999999999837e+00 -1.7319856359298469e-01 -5.7969103566527782e-04 +2.0774892434123823e-01 +1.1621202518593611e+01 -2.3115523061115896e+03 -5.3738394372593270e+04 +1.0893245270936718e+07 
+9.1999999999999833e+00 -1.7319857721444437e-01 -5.8001513803157751e-04 +2.0893959662021550e-01 +1.1631349943845738e+01 -2.3256042939751314e+03 -5.3925962194712338e+04 +1.0944173267237684e+07 
+9.2999999999999829e+00 -1.7319859037605398e-01 -5.8011486973582032e-04 +2.1010045123538040e-01 +1.1640238357174590e+01 -2.3389015745345432e+03 -5.4117443094815731e+04 +1.0991100978470704e+07 
+9.3999999999999826e+00 -1.7319860313489635e-01 -5.7997475247954203e-04 +2.1123133831371629e-01 +1.1647683489188035e+01 -2.3514373647849807e+03 -5.4312102339884870e+04 +1.1034032022918263e+07 
+9.4999999999999822e+00 -1.7319861554808097e-01 -5.7957930959559101e-04 +2.1233210878333725e-01 +1.1653501107594019e+01 -2.3632048830256053e+03 -5.4509205727557048e+04 +1.1072969990895623e+07 
+9.5999999999999819e+00 -1.7319862767273947e-01 -5.7891306635696465e-04 +2.1340261390021556e-01 +1.1657507020348580e+01 -2.3741973406707316e+03 -5.4708019596520673e+04 +1.1107918408178590e+07 
+9.6999999999999815e+00 -1.7319863956602527e-01 -5.7796054994636902e-04 +2.1444270497812576e-01 +1.1659517078678055e+01 -2.3844079356217208e+03 -5.4907810864936386e+04 +1.1138880700712165e+07 
+9.7999999999999812e+00 -1.7319865128511755e-01 -5.7670628871429690e-04 +2.1545223400082072e-01 +1.1659347154524239e+01 -2.3938298649469552e+03 -5.5107846904854901e+04 +1.1165860257416334e+07 
+9.8999999999999808e+00 -1.7319866288721855e-01 -5.7513481357921923e-04 +2.1643105315797359e-01 +1.1656813178227914e+01 -2.4024563148486600e+03 -5.5307395762141939e+04 +1.1188860379451519e+07 
+9.9999999999999805e+00 -1.7319867442946466e-01 -5.7323064713780947e-04 +2.1737900297092561e-01 +1.1651729432216390e+01 -2.4102804190703037e+03 -5.5505716687407948e+04 +1.1207884360104918e+07 
+1.0099999999999980e+01 -1.7319868593617802e-01 -5.7098439725417494e-04 +2.1829420369414737e-01 +1.1643854126209050e+01 -2.4172853152649686e+03 -5.5701384208488838e+04 +1.1222933465507455e+07 
