# field on trajectory
# s[mm] rx[mm] ry[mm] rz[mm] bx[T] by[T] bz[T]
0.0000000000000000e+00 +4.6467000000000001e+00 +0.0000000000000000e+00 +0.0000000000000000e+00 +7.1557432153891744e-03 -1.2971194440795458e-01 +8.5082911571011130e-04
-1.0000000000000001e-01 +4.6466956959158647e+00 +0.0000000000000000e+00 -9.9999999876499060e-02 +7.1557462060621441e-03 -1.2971193411533716e-01 +8.5082225381168423e-04
-2.0000000000000001e-01 +4.6466827836639641e+00 +0.0000000000000000e+00 -1.9999999901199256e-01 +7.1557455389390347e-03 -1.2971192216978336e-01 +8.5081377138263167e-04
-3.0000000000000004e-01 +4.6466612632451874e+00 +0.0000000000000000e+00 -2.9999999666547517e-01 +7.1557416013820338e-03 -1.2971190855759110e-01 +8.5080383009813933e-04
-4.0000000000000002e-01 +4.6466311346605966e+00 +0.0000000000000000e+00 -3.9999999209594184e-01 +7.1557347807406592e-03 -1.2971189326508126e-01 +8.5079259167989351e-04
-5.0000000000000000e-01 +4.6465923979114310e+00 +0.0000000000000000e+00 -4.9999998456238770e-01 +7.1557254643547803e-03 -1.2971187627858982e-01 +8.5078021788575196e-04
-5.9999999999999998e-01 +4.6465450529991044e+00 +0.0000000000000000e+00 -5.9999997332380828e-01 +7.1557140395576164e-03 -1.2971185758446002e-01 +8.5076687049941136e-04
-6.9999999999999996e-01 +4.6464890999252084e+00 +0.0000000000000000e+00 -6.9999995763919942e-01 +7.1557008936787630e-03 -1.2971183716903448e-01 +8.5075271132008061e-04
-7.9999999999999993e-01 +4.6464245386915124e+00 +0.0000000000000000e+00 -7.9999993676755754e-01 +7.1556864140472111e-03 -1.2971181501864770e-01 +8.5073790215214992e-04
-8.9999999999999991e-01 +4.6463513692999650e+00 +0.0000000000000000e+00 -8.9999990996787949e-01 +7.1556709879943585e-03 -1.2971179111961778e-01 +8.5072260479486126e-04
-9.9999999999999989e-01 +4.6462695917526942e+00 +0.0000000000000000e+00 -9.9999987649916255e-01 +7.1556550028570353e-03 -1.2971176545823912e-01 +8.5070698103198146e-04
-1.0999999999999999e+00 +4.6461792060520093e+00 +0.0000000000000000e+00 -1.0999998356204046e+00 +7.1556388459805076e-03 -1.2971173802077435e-01 +8.5069119262147247e-04
-1.2000000000000000e+00 +4.6460802122004008e+00 +0.0000000000000000e+00 -1.1999997865906042e+00 +7.1556229047215038e-03 -1.2971170879344660e-01 +8.5067540128516304e-04
-1.3000000000000000e+00 +4.6459726102005421e+00 +0.0000000000000000e+00 -1.2999997286687606e+00 +7.1556075664512345e-03 -1.2971167776243170e-01 +8.5065976869842265e-04
-1.4000000000000001e+00 +4.6458564000552895e+00 +0.0000000000000000e+00 -1.3999996611138734e+00 +7.1555932185583902e-03 -1.2971164491385051e-01 +8.5064445647983343e-04
-1.5000000000000002e+00 +4.6457315817676852e+00 +0.0000000000000000e+00 -1.4999995831849433e+00 +7.1555802484521702e-03 -1.2971161023376085e-01 +8.5062962618086410e-04
-1.6000000000000003e+00 +4.6455981553409549e+00 +0.0000000000000000e+00 -1.5999994941409719e+00 +7.1555690435652908e-03 -1.2971157370815012e-01 +8.5061543927554496e-04
-1.7000000000000004e+00 +4.6454561207785110e+00 +0.0000000000000000e+00 -1.6999993932409612e+00 +7.1555599913569797e-03 -1.2971153532292717e-01 +8.5060205715014171e-04
-1.8000000000000005e+00 +4.6453054780839542e+00 +0.0000000000000000e+00 -1.7999992797439146e+00 +7.1555534793160021e-03 -1.2971149506391466e-01 +8.5058964109283194e-04
-1.9000000000000006e+00 +4.6451462272610726e+00 +0.0000000000000000e+00 -1.8999991529088363e+00 +7.1555498949636542e-03 -1.2971145291684139e-01 +8.5057835228338069e-04
-2.0000000000000004e+00 +4.6449783683138426e+00 +0.0000000000000000e+00 -1.9999990119947311e+00 +7.1555496258567655e-03 -1.2971140886733434e-01 +8.5056835178281978e-04
-2.1000000000000005e+00 +4.6448019012464323e+00 +0.0000000000000000e+00 -2.0999988562606053e+00 +7.1555529404056933e-03 -1.2971136291874416e-01 +8.5055977587926272e-04
-2.2000000000000006e+00 +4.6446168260631975e+00 +0.0000000000000000e+00 -2.1999986849654665e+00 +7.1555596302861754e-03 -1.2971131514566481e-01 +8.5055266218409518e-04
-2.3000000000000007e+00 +4.6444231427686793e+00 +0.0000000000000000e+00 -2.2999984973683225e+00 +7.1555693679624457e-03 -1.2971126564047375e-01 +8.5054702363289447e-04
-2.4000000000000008e+00 +4.6442208513675984e+00 +0.0000000000000000e+00 -2.3999982927281835e+00 +7.1555818258695128e-03 -1.2971121449550538e-01 +8.5054287314425788e-04
-2.5000000000000009e+00 +4.6440099518648470e+00 +0.0000000000000000e+00 -2.4999980703040601e+00 +7.1555966764084728e-03 -1.2971116180305181e-01 +8.5054022362377043e-04
-2.6000000000000010e+00 +4.6437904442654840e+00 +0.0000000000000000e+00 -2.5999978293549639e+00 +7.1556135919418036e-03 -1.2971110765536442e-01 +8.5053908796796905e-04
-2.7000000000000011e+00 +4.6435623285747294e+00 +0.0000000000000000e+00 -2.6999975691399087e+00 +7.1556322447886992e-03 -1.2971105214465445e-01 +8.5053947906830476e-04
-2.8000000000000012e+00 +4.6433256047979565e+00 +0.0000000000000000e+00 -2.7999972889179090e+00 +7.1556523072203830e-03 -1.2971099536309497e-01 +8.5054140981510255e-04
-2.9000000000000012e+00 +4.6430802729406881e+00 +0.0000000000000000e+00 -2.8999969879479806e+00 +7.1556734514554134e-03 -1.2971093740282161e-01 +8.5054489310151761e-04
-3.0000000000000013e+00 +4.6428263330085873e+00 +0.0000000000000000e+00 -2.9999966654891401e+00 +7.1556953496550151e-03 -1.2971087835593356e-01 +8.5054994182748756e-04
-3.1000000000000014e+00 +4.6425637850074537e+00 +0.0000000000000000e+00 -3.0999963208004067e+00 +7.1557176739183923e-03 -1.2971081831449532e-01 +8.5055656890368483e-04
-3.2000000000000015e+00 +4.6422926289432169e+00 +0.0000000000000000e+00 -3.1999959531408004e+00 +7.1557400962780609e-03 -1.2971075737053731e-01 +8.5056478725546172e-04
-3.3000000000000016e+00 +4.6420128648219299e+00 +0.0000000000000000e+00 -3.2999955617693422e+00 +7.1557622886951550e-03 -1.2971069561605747e-01 +8.5057460982679279e-04
-3.4000000000000017e+00 +4.6417244926497636e+00 +0.0000000000000000e+00 -3.3999951459450548e+00 +7.1557839230547843e-03 -1.2971063314302236e-01 +8.5058604958421528e-04
-3.5000000000000018e+00 +4.6414275124330002e+00 +0.0000000000000000e+00 -3.4999947049269622e+00 +7.1558046711613314e-03 -1.2971057004336817e-01 +8.5059911952076249e-04
-3.6000000000000019e+00 +4.6411219241780275e+00 +0.0000000000000000e+00 -3.5999942379740895e+00 +7.1558242047337975e-03 -1.2971050640900211e-01 +8.5061383265989542e-04
-3.7000000000000020e+00 +4.6408077278913327e+00 +0.0000000000000000e+00 -3.6999937443454636e+00 +7.1558421954011466e-03 -1.2971044233180357e-01 +8.5063020205942844e-04
-3.8000000000000020e+00 +4.6404849235794954e+00 +0.0000000000000000e+00 -3.7999932233001128e+00 +7.1558583146976310e-03 -1.2971037790362522e-01 +8.5064824081545120e-04
-3.9000000000000021e+00 +4.6401535112491823e+00 +0.0000000000000000e+00 -3.8999926740970667e+00 +7.1558722340581268e-03 -1.2971031321629428e-01 +8.5066796206624356e-04
-4.0000000000000018e+00 +4.6398134909071418e+00 +0.0000000000000000e+00 -3.9999920959953563e+00 +7.1558836248134831e-03 -1.2971024836161368e-01 +8.5068937899618975e-04
-4.1000000000000014e+00 +4.6394648625601969e+00 +0.0000000000000000e+00 -4.0999914882540134e+00 +7.1558922503790479e-03 -1.2971018346169258e-01 +8.5071247247203274e-04
-4.2000000000000011e+00 +4.6391076262152362e+00 +0.0000000000000000e+00 -4.1999908501320720e+00 +7.1558982429763794e-03 -1.2971011876003244e-01 +8.5073709392432704e-04
-4.3000000000000007e+00 +4.6387417818791992e+00 +0.0000000000000000e+00 -4.2999901808885674e+00 +7.1559018271141160e-03 -1.2971005453065035e-01 +8.5076306249016315e-04
-4.4000000000000004e+00 +4.6383673295590579e+00 +0.0000000000000000e+00 -4.3999894797825352e+00 +7.1559032273714107e-03 -1.2970999104776507e-01 +8.5079019740481713e-04
-4.5000000000000000e+00 +4.6379842692617981e+00 +0.0000000000000000e+00 -4.4999887460730124e+00 +7.1559026684039672e-03 -1.2970992858581043e-01 +8.5081831800769498e-04
-4.5999999999999996e+00 +4.6375926009944024e+00 +0.0000000000000000e+00 -4.5999879790190379e+00 +7.1559003749500621e-03 -1.2970986741944912e-01 +8.5084724374827878e-04
-4.6999999999999993e+00 +4.6371923247638298e+00 +0.0000000000000000e+00 -4.6999871778796507e+00 +7.1558965718365505e-03 -1.2970980782358532e-01 +8.5087679419207298e-04
-4.7999999999999989e+00 +4.6367834405770010e+00 +0.0000000000000000e+00 -4.7999863419138915e+00 +7.1558914839848853e-03 -1.2970975007337859e-01 +8.5090678902654561e-04
-4.8999999999999986e+00 +4.6363659484407753e+00 +0.0000000000000000e+00 -4.8999854703808001e+00 +7.1558853364171050e-03 -1.2970969444425726e-01 +8.5093704806707502e-04
-4.9999999999999982e+00 +4.6359398483619376e+00 +0.0000000000000000e+00 -4.9999845625394190e+00 +7.1558783542618213e-03 -1.2970964121193154e-01 +8.5096739126288982e-04
-5.0999999999999979e+00 +4.6355051403471759e+00 +0.0000000000000000e+00 -5.0999836176487907e+00 +7.1558707627602178e-03 -1.2970959065240692e-01 +8.5099763870301489e-04
-5.1999999999999975e+00 +4.6350618244030644e+00 +0.0000000000000000e+00 -5.1999826349679568e+00 +7.1558627872720035e-03 -1.2970954304199744e-01 +8.5102761062220988e-04
-5.2999999999999972e+00 +4.6346099005360468e+00 +0.0000000000000000e+00 -5.2999816137559606e+00 +7.1558546532813870e-03 -1.2970949865733919e-01 +8.5105712740691337e-04
-5.3999999999999968e+00 +4.6341493687524151e+00 +0.0000000000000000e+00 -5.3999805532718446e+00 +7.1558465864030307e-03 -1.2970945777540324e-01 +8.5108600960118229e-04
-5.4999999999999964e+00 +4.6336802290582941e+00 +0.0000000000000000e+00 -5.4999794527746522e+00 +7.1558388123879931e-03 -1.2970942067350946e-01 +8.5111407791263396e-04
-5.5999999999999961e+00 +4.6332024814596204e+00 +0.0000000000000000e+00 -5.5999783115234258e+00 +7.1558315571296615e-03 -1.2970938762933912e-01 +8.5114115321838419e-04
-5.6999999999999957e+00 +4.6327161259621246e+00 +0.0000000000000000e+00 -5.6999771287772081e+00 +7.1558250466696813e-03 -1.2970935892094834e-01 +8.5116705657098900e-04
-5.7999999999999954e+00 +4.6322211625713150e+00 +0.0000000000000000e+00 -5.7999759037950396e+00 +7.1558195072038621e-03 -1.2970933482678176e-01 +8.5119160920438209e-04
-5.8999999999999950e+00 +4.6317175912924560e+00 +0.0000000000000000e+00 -5.8999746358359628e+00 +7.1558151650880919e-03 -1.2970931562568508e-01 +8.5121463253981457e-04
-5.9999999999999947e+00 +4.6312054121305524e+00 +0.0000000000000000e+00 -5.9999733241590167e+00 +7.1558122468442205e-03 -1.2970930159691874e-01 +8.5123594819179395e-04
-6.0999999999999943e+00 +4.6306846250903284e+00 +0.0000000000000000e+00 -6.0999719680232412e+00 +7.1558109247077395e-03 -1.2970929286907021e-01 +8.5125542345239758e-04
-6.1999999999999940e+00 +4.6301552301762250e+00 +0.0000000000000000e+00 -6.1999705666876732e+00 +7.1558111530151455e-03 -1.2970928896605713e-01 +8.5127310776260704e-04
-6.2999999999999936e+00 +4.6296172273924281e+00 +0.0000000000000000e+00 -6.2999691194113492e+00 +7.1558128315461116e-03 -1.2970928926027644e-01 +8.5128909600203713e-04
-6.3999999999999932e+00 +4.6290706167429079e+00 +0.0000000000000000e+00 -6.3999676254533044e+00 +7.1558158600495301e-03 -1.2970929312387824e-01 +8.5130348290152896e-04
-6.4999999999999929e+00 +4.6285153982314613e+00 +0.0000000000000000e+00 -6.4999660840725735e+00 +7.1558201382411401e-03 -1.2970929992875155e-01 +8.5131636303516244e-04
-6.5999999999999925e+00 +4.6279515718617548e+00 +0.0000000000000000e+00 -6.5999644945281908e+00 +7.1558255658011743e-03 -1.2970930904651026e-01 +8.5132783081227903e-04
-6.6999999999999922e+00 +4.6273791376373650e+00 +0.0000000000000000e+00 -6.6999628560791882e+00 +7.1558320423720043e-03 -1.2970931984847969e-01 +8.5133798046952108e-04
-6.7999999999999918e+00 +4.6267980955618189e+00 +0.0000000000000000e+00 -6.7999611679845984e+00 +7.1558394675557951e-03 -1.2970933170568236e-01 +8.5134690606288076e-04
-6.8999999999999915e+00 +4.6262084456386390e+00 +0.0000000000000000e+00 -6.8999594295034532e+00 +7.1558477409122056e-03 -1.2970934398882428e-01 +8.5135470145976421e-04
-6.9999999999999911e+00 +4.6256101878713833e+00 +0.0000000000000000e+00 -6.9999576398947854e+00 +7.1558567619560576e-03 -1.2970935606828102e-01 +8.5136146033106962e-04
-7.0999999999999908e+00 +4.6250033222636864e+00 +0.0000000000000000e+00 -7.0999557984176267e+00 +7.1558664301550473e-03 -1.2970936731408414e-01 +8.5136727614327731e-04
-7.1999999999999904e+00 +4.6243878488193015e+00 +0.0000000000000000e+00 -7.1999539043310108e+00 +7.1558766449274806e-03 -1.2970937709590707e-01 +8.5137224215055881e-04
-7.2999999999999901e+00 +4.6237637675421439e+00 +0.0000000000000000e+00 -7.2999519568939721e+00 +7.1558873056399852e-03 -1.2970938478305175e-01 +8.5137645138689654e-04
-7.3999999999999897e+00 +4.6231310784363320e+00 +0.0000000000000000e+00 -7.3999499553655443e+00 +7.1558983116052953e-03 -1.2970938974443472e-01 +8.5137999665822143e-04
-7.4999999999999893e+00 +4.6224897815062267e+00 +0.0000000000000000e+00 -7.4999478990047646e+00 +7.1559095620799765e-03 -1.2970939134857334e-01 +8.5138297053456474e-04
-7.5999999999999890e+00 +4.6218398767564777e+00 +0.0000000000000000e+00 -7.5999457870706708e+00 +7.1559209562622522e-03 -1.2970938896357231e-01 +8.5138546534222826e-04
-7.6999999999999886e+00 +4.6211813641920632e+00 +0.0000000000000000e+00 -7.6999436188223029e+00 +7.1559323932897803e-03 -1.2970938195711013e-01 +8.5138757315596908e-04
-7.7999999999999883e+00 +4.6205142438183300e+00 +0.0000000000000000e+00 -7.7999413935187034e+00 +7.1559437722374742e-03 -1.2970936969642519e-01 +8.5138938579120251e-04
-7.8999999999999879e+00 +4.6198385156410389e+00 +0.0000000000000000e+00 -7.8999391104189192e+00 +7.1559549921153516e-03 -1.2970935154830243e-01 +8.5139099479622103e-04
-7.9999999999999876e+00 +4.6191541796664044e+00 +0.0000000000000000e+00 -7.9999367687819980e+00 +7.1559659518663768e-03 -1.2970932687905995e-01 +8.5139249144443275e-04
-8.0999999999999872e+00 +4.6184612359011377e+00 +0.0000000000000000e+00 -8.0999343678669931e+00 +7.1559765524481164e-03 -1.2970929524461675e-01 +8.5139395665989972e-04
-8.1999999999999869e+00 +4.6177596843524693e+00 +0.0000000000000000e+00 -8.1999319069329601e+00 +7.1559867030923964e-03 -1.2970925696228766e-01 +8.5139543084538900e-04
-8.2999999999999865e+00 +4.6170495250281363e+00 +0.0000000000000000e+00 -8.2999293852389613e+00 +7.1559963150341415e-03 -1.2970921254001647e-01 +8.5139694431438529e-04
-8.3999999999999861e+00 +4.6163307579363462e+00 +0.0000000000000000e+00 -8.3999268020440621e+00 +7.1560052994155219e-03 -1.2970916248559736e-01 +8.5139852742594348e-04
-8.4999999999999858e+00 +4.6156033830857428e+00 +0.0000000000000000e+00 -8.4999241566073298e+00 +7.1560135672831615e-03 -1.2970910730667226e-01 +8.5140021058686868e-04
-8.5999999999999854e+00 +4.6148674004853758e+00 +0.0000000000000000e+00 -8.5999214481878372e+00 +7.1560210295852937e-03 -1.2970904751072670e-01 +8.5140202425387399e-04
-8.6999999999999851e+00 +4.6141228101446634e+00 +0.0000000000000000e+00 -8.6999186760446623e+00 +7.1560275971689694e-03 -1.2970898360508701e-01 +8.5140399893572746e-04
-8.7999999999999847e+00 +4.6133696120733605e+00 +0.0000000000000000e+00 -8.7999158394368830e+00 +7.1560331807772430e-03 -1.2970891609691626e-01 +8.5140616519538545e-04
-8.8999999999999844e+00 +4.6126078062815257e+00 +0.0000000000000000e+00 -8.8999129376235846e+00 +7.1560376910463561e-03 -1.2970884549321113e-01 +8.5140855365210323e-04
-8.9999999999999840e+00 +4.6118373927794867e+00 +0.0000000000000000e+00 -8.9999099698638521e+00 +7.1560410385029501e-03 -1.2970877230079828e-01 +8.5141119498353718e-04
-9.0999999999999837e+00 +4.6110583715778057e+00 +0.0000000000000000e+00 -9.0999069354167759e+00 +7.1560431335612453e-03 -1.2970869702633073e-01 +8.5141411992782504e-04
-9.1999999999999833e+00 +4.6102707426872485e+00 +0.0000000000000000e+00 -9.1999038335414483e+00 +7.1560438865202513e-03 -1.2970862017628415e-01 +8.5141735928564912e-04
-9.2999999999999829e+00 +4.6094745061187474e+00 +0.0000000000000000e+00 -9.2999006634969632e+00 +7.1560432075609649e-03 -1.2970854225695339e-01 +8.5142094392228623e-04
-9.3999999999999826e+00 +4.6086696618833702e+00 +0.0000000000000000e+00 -9.3998974245424201e+00 +7.1560410067435789e-03 -1.2970846377444858e-01 +8.5142490476963631e-04
-9.4999999999999822e+00 +4.6078562099922866e+00 +0.0000000000000000e+00 -9.4998941159369164e+00 +7.1560371940046826e-03 -1.2970838523469158e-01 +8.5142927282823278e-04
-9.5999999999999819e+00 +4.6070341504567329e+00 +0.0000000000000000e+00 -9.5998907369395550e+00 +7.1560316791544768e-03 -1.2970830714341200e-01 +8.5143407916923560e-04
-9.6999999999999815e+00 +4.6062034832879801e+00 +0.0000000000000000e+00 -9.6998872868094388e+00 +7.1560243718739877e-03 -1.2970823000614354e-01 +8.5143935493640758e-04
-9.7999999999999812e+00 +4.6053642084972992e+00 +0.0000000000000000e+00 -9.7998837648056707e+00 +7.1560151817122832e-03 -1.2970815432822005e-01 +8.5144513134806496e-04
-9.8999999999999808e+00 +4.6045163260959274e+00 +0.0000000000000000e+00 -9.8998801701873589e+00 +7.1560040180836757e-03 -1.2970808061477154e-01 +8.5145143969901518e-04
-9.9999999999999805e+00 +4.6036598360950372e+00 +0.0000000000000000e+00 -9.9998765022136080e+00 +7.1559907902649673e-03 -1.2970800937072047e-01 +8.5145831136247132e-04
-1.0099999999999980e+01 +4.6027947385056995e+00 +0.0000000000000000e+00 -1.0099872760143525e+01 +7.1559754463830774e-03 -1.2970794102517719e-01 +8.5146577403210461e-04
-1.0199999999999980e+01 +4.6019210333388596e+00 +0.0000000000000000e+00 -1.0199868943236215e+01 +7.1559580910402903e-03 -1.2970787570374245e-01 +8.5147384038938715e-04
-1.0299999999999979e+01 +4.6010387206053256e+00 +0.0000000000000000e+00 -1.0299865050750785e+01 +7.1559388681901636e-03 -1.2970781345627463e-01 +8.5148251941446172e-04
-1.0399999999999979e+01 +4.6001478003157654e+00 +0.0000000000000000e+00 -1.0399861081946343e+01 +7.1559179218789607e-03 -1.2970775433312365e-01 +8.5149182017645053e-04
-1.0499999999999979e+01 +4.5992482724807040e+00 +0.0000000000000000e+00 -1.0499857036081995e+01 +7.1558953962481964e-03 -1.2970769838514423e-01 +8.5150175183578423e-04
-1.0599999999999978e+01 +4.5983401371105188e+00 +0.0000000000000000e+00 -1.0599852912416846e+01 +7.1558714355371778e-03 -1.2970764566371062e-01 +8.5151232364653342e-04
-1.0699999999999978e+01 +4.5974233942154372e+00 +0.0000000000000000e+00 -1.0699848710210002e+01 +7.1558461840854843e-03 -1.2970759622073058e-01 +8.5152354495874401e-04
-1.0799999999999978e+01 +4.5964980438055330e+00 +0.0000000000000000e+00 -1.0799844428720567e+01 +7.1558197863354663e-03 -1.2970755010865945e-01 +8.5153542522077433e-04
-1.0899999999999977e+01 +4.5955640858907216e+00 +0.0000000000000000e+00 -1.0899840067207647e+01 +7.1557923868346886e-03 -1.2970750738051423e-01 +8.5154797398164081e-04
-1.0999999999999977e+01 +4.5946215204807590e+00 +0.0000000000000000e+00 -1.0999835624930345e+01 +7.1557641302383542e-03 -1.2970746808988798e-01 +8.5156120089336176e-04
-1.1099999999999977e+01 +4.5936703475852356e+00 +0.0000000000000000e+00 -1.1099831101147762e+01 +7.1557351613117199e-03 -1.2970743229096382e-01 +8.5157511571330941e-04
-1.1199999999999976e+01 +4.5927105672135751e+00 +0.0000000000000000e+00 -1.1199826495119002e+01 +7.1557056249324695e-03 -1.2970740003852968e-01 +8.5158972830656537e-04
-1.1299999999999976e+01 +4.5917421793750286e+00 +0.0000000000000000e+00 -1.1299821806103164e+01 +7.1556756660930646e-03 -1.2970737138799168e-01 +8.5160504864827688e-04
-1.1399999999999975e+01 +4.5907651840786725e+00 +0.0000000000000000e+00 -1.1399817033359350e+01 +7.1556454299030632e-03 -1.2970734639538931e-01 +8.5162108682601968e-04
-1.1499999999999975e+01 +4.5897795813334037e+00 +0.0000000000000000e+00 -1.1499812176146657e+01 +7.1556150615914305e-03 -1.2970732511740926e-01 +8.5163785304216818e-04
-1.1599999999999975e+01 +4.5887853711479378e+00 +0.0000000000000000e+00 -1.1599807233724182e+01 +7.1555847065087937e-03 -1.2970730761139976e-01 +8.5165535761626309e-04
-1.1699999999999974e+01 +4.5877825535308023e+00 +0.0000000000000000e+00 -1.1699802205351020e+01 +7.1555545101296986e-03 -1.2970729393538544e-01 +8.5167361098738954e-04
