# trajectory
# s[mm] rx[mm] ry[mm] rz[mm] px[rad] py[rad] pz[rad]
0.0000000000000000e+00 +4.6467000000000001e+00 +0.0000000000000000e+00 +0.0000000000000000e+00 +0.0000000000000000e+00 +0.0000000000000000e+00 +1.0000000000000000e+00
1.0000000000000001e-01 +4.6466965339396182e+00 +0.0000000000000000e+00 +9.9999999919909516e-02 -6.9321207845022086e-05 +0.0000000000000000e+00 +9.9999999759728508e-01
2.0000000000000001e-01 +4.6466861357583822e+00 +0.0000000000000000e+00 +1.9999999935927604e-01 -1.3864241715379582e-04 +0.0000000000000000e+00 +9.9999999038914000e-01
3.0000000000000004e-01 +4.6466688054561285e+00 +0.0000000000000000e+00 +2.9999999783755649e-01 -2.0796362824787535e-04 +0.0000000000000000e+00 +9.9999997837556442e-01
4.0000000000000002e-01 +4.6466445430326644e+00 +0.0000000000000000e+00 +3.9999999487420784e-01 -2.7728484139186383e-04 +0.0000000000000000e+00 +9.9999996155655757e-01
5.0000000000000000e-01 +4.6466133484877750e+00 +0.0000000000000000e+00 +4.9999998998868694e-01 -3.4660605679342322e-04 +0.0000000000000000e+00 +9.9999993993211889e-01
5.9999999999999998e-01 +4.6465752218212257e+00 +0.0000000000000000e+00 +5.9999998270045052e-01 -4.1592727460328403e-04 +0.0000000000000000e+00 +9.9999991350224737e-01
6.9999999999999996e-01 +4.6465301630327707e+00 +0.0000000000000000e+00 +6.9999997252895529e-01 -4.8524849491525534e-04 +0.0000000000000000e+00 +9.9999988226694214e-01
7.9999999999999993e-01 +4.6464781721221575e+00 +0.0000000000000000e+00 +7.9999995899365783e-01 -5.5456971776623434e-04 +0.0000000000000000e+00 +9.9999984622620219e-01
8.9999999999999991e-01 +4.6464192490891332e+00 +0.0000000000000000e+00 +8.9999994161401453e-01 -6.2389094313621636e-04 +0.0000000000000000e+00 +9.9999980538002653e-01
9.9999999999999989e-01 +4.6463533939334489e+00 +0.0000000000000000e+00 +9.9999991990948189e-01 -6.9321217094830457e-04 +0.0000000000000000e+00 +9.9999975972841404e-01
1.0999999999999999e+00 +4.6462806066548668e+00 +0.0000000000000000e+00 +1.0999998933995161e+00 -7.6253340106871971e-04 +0.0000000000000000e+00 +9.9999970927136372e-01
1.2000000000000000e+00 +4.6462008872531646e+00 +0.0000000000000000e+00 +1.1999998616035734e+00 -8.3185463330680992e-04 +0.0000000000000000e+00 +9.9999965400887447e-01
1.3000000000000000e+00 +4.6461142357281426e+00 +0.0000000000000000e+00 +1.2999998240411097e+00 -9.0117586741506040e-04 +0.0000000000000000e+00 +9.9999959394094540e-01
1.4000000000000001e+00 +4.6460206520796294e+00 +0.0000000000000000e+00 +1.3999997802315811e+00 -9.7049710308910351e-04 +0.0000000000000000e+00 +9.9999952906757539e-01
1.5000000000000002e+00 +4.6459201363074847e+00 +0.0000000000000000e+00 +1.4999997296944434e+00 -1.0398183399677281e-03 +0.0000000000000000e+00 +9.9999945938876367e-01
1.6000000000000003e+00 +4.6458126884116089e+00 +0.0000000000000000e+00 +1.5999996719491525e+00 -1.1091395776328895e-03 +0.0000000000000000e+00 +9.9999938490450935e-01
1.7000000000000004e+00 +4.6456983083919470e+00 +0.0000000000000000e+00 +1.6999996065151639e+00 -1.1784608156097192e-03 +0.0000000000000000e+00 +9.9999930561481176e-01
1.8000000000000005e+00 +4.6455769962484936e+00 +0.0000000000000000e+00 +1.7999995329119334e+00 -1.2477820533665347e-03 +0.0000000000000000e+00 +9.9999922151967047e-01
1.9000000000000006e+00 +4.6454487519813004e+00 +0.0000000000000000e+00 +1.8999994506589166e+00 -1.3171032903148490e-03 +0.0000000000000000e+00 +9.9999913261908502e-01
2.0000000000000004e+00 +4.6453135755904791e+00 +0.0000000000000000e+00 +1.9999993592755689e+00 -1.3864245258093809e-03 +0.0000000000000000e+00 +9.9999903891305519e-01
2.1000000000000005e+00 +4.6451714670762101e+00 +0.0000000000000000e+00 +2.0999992582813460e+00 -1.4557457591481029e-03 +0.0000000000000000e+00 +9.9999894040158088e-01
2.2000000000000006e+00 +4.6450224264387465e+00 +0.0000000000000000e+00 +2.1999991471957037e+00 -1.5250669895726801e-03 +0.0000000000000000e+00 +9.9999883708466242e-01
2.3000000000000007e+00 +4.6448664536784197e+00 +0.0000000000000000e+00 +2.2999990255380971e+00 -1.5943882162689042e-03 +0.0000000000000000e+00 +9.9999872896230013e-01
2.4000000000000008e+00 +4.6447035487956461e+00 +0.0000000000000000e+00 +2.3999988928279823e+00 -1.6637094383667355e-03 +0.0000000000000000e+00 +9.9999861603449469e-01
2.5000000000000009e+00 +4.6445337117909311e+00 +0.0000000000000000e+00 +2.4999987485848147e+00 -1.7330306549403036e-03 +0.0000000000000000e+00 +9.9999849830124699e-01
2.6000000000000010e+00 +4.6443569426648752e+00 +0.0000000000000000e+00 +2.5999985923280504e+00 -1.8023518650079095e-03 +0.0000000000000000e+00 +9.9999837576255834e-01
2.7000000000000011e+00 +4.6441732414181809e+00 +0.0000000000000000e+00 +2.6999984235771453e+00 -1.8716730675320257e-03 +0.0000000000000000e+00 +9.9999824841843021e-01
2.8000000000000012e+00 +4.6439826080516564e+00 +0.0000000000000000e+00 +2.7999982418515552e+00 -1.9409942614192948e-03 +0.0000000000000000e+00 +9.9999811626886448e-01
2.9000000000000012e+00 +4.6437850425662228e+00 +0.0000000000000000e+00 +2.8999980466707367e+00 -2.0103154455205288e-03 +0.0000000000000000e+00 +9.9999797931386325e-01
3.0000000000000013e+00 +4.6435805449629184e+00 +0.0000000000000000e+00 +2.9999978375541465e+00 -2.0796366186307071e-03 +0.0000000000000000e+00 +9.9999783755342919e-01
3.1000000000000014e+00 +4.6433691152429049e+00 +0.0000000000000000e+00 +3.0999976140212415e+00 -2.1489577794889738e-03 +0.0000000000000000e+00 +9.9999769098756530e-01
3.2000000000000015e+00 +4.6431507534074727e+00 +0.0000000000000000e+00 +3.1999973755914786e+00 -2.2182789267786327e-03 +0.0000000000000000e+00 +9.9999753961627480e-01
3.3000000000000016e+00 +4.6429254594580467e+00 +0.0000000000000000e+00 +3.2999971217843154e+00 -2.2876000591271453e-03 +0.0000000000000000e+00 +9.9999738343956157e-01
3.4000000000000017e+00 +4.6426932333961926e+00 +0.0000000000000000e+00 +3.3999968521192101e+00 -2.3569211751061228e-03 +0.0000000000000000e+00 +9.9999722245742984e-01
3.5000000000000018e+00 +4.6424540752236210e+00 +0.0000000000000000e+00 +3.4999965661156209e+00 -2.4262422732313233e-03 +0.0000000000000000e+00 +9.9999705666988425e-01
3.6000000000000019e+00 +4.6422079849421927e+00 +0.0000000000000000e+00 +3.5999962632930065e+00 -2.4955633519626419e-03 +0.0000000000000000e+00 +9.9999688607692994e-01
3.7000000000000020e+00 +4.6419549625539274e+00 +0.0000000000000000e+00 +3.6999959431708267e+00 -2.5648844097041056e-03 +0.0000000000000000e+00 +9.9999671067857265e-01
3.8000000000000020e+00 +4.6416950080610064e+00 +0.0000000000000000e+00 +3.7999956052685411e+00 -2.6342054448038649e-03 +0.0000000000000000e+00 +9.9999653047481851e-01
3.9000000000000021e+00 +4.6414281214657782e+00 +0.0000000000000000e+00 +3.8999952491056105e+00 -2.7035264555541829e-03 +0.0000000000000000e+00 +9.9999634546567429e-01
4.0000000000000018e+00 +4.6411543027707660e+00 +0.0000000000000000e+00 +3.9999948742014966e+00 -2.7728474401914273e-03 +0.0000000000000000e+00 +9.9999615565114719e-01
4.1000000000000014e+00 +4.6408735519786708e+00 +0.0000000000000000e+00 +4.0999944800756607e+00 -2.8421683969047048e-03 +0.0000000000000000e+00 +9.9999596103124522e-01
4.2000000000000011e+00 +4.6405858690923747e+00 +0.0000000000000000e+00 +4.1999940662475668e+00 -2.9114893239309634e-03 +0.0000000000000000e+00 +9.9999576160597636e-01
4.3000000000000007e+00 +4.6402912541149286e+00 +0.0000000000000000e+00 +4.2999936322366779e+00 -2.9808102196501214e-03 +0.0000000000000000e+00 +9.9999555737534884e-01
4.4000000000000004e+00 +4.6399897070495379e+00 +0.0000000000000000e+00 +4.3999931775624583e+00 -3.0501310825937294e-03 +0.0000000000000000e+00 +9.9999534833937065e-01
4.5000000000000000e+00 +4.6396812278995467e+00 +0.0000000000000000e+00 +4.4999927017443735e+00 -3.1194519114449860e-03 +0.0000000000000000e+00 +9.9999513449804966e-01
4.5999999999999996e+00 +4.6393658166684242e+00 +0.0000000000000000e+00 +4.5999922043018904e+00 -3.1887727050387529e-03 +0.0000000000000000e+00 +9.9999491585139366e-01
4.6999999999999993e+00 +4.6390434733597479e+00 +0.0000000000000000e+00 +4.6999916847544752e+00 -3.2580934623615736e-03 +0.0000000000000000e+00 +9.9999469239941008e-01
4.7999999999999989e+00 +4.6387141979771895e+00 +0.0000000000000000e+00 +4.7999911426215949e+00 -3.3274141825516889e-03 +0.0000000000000000e+00 +9.9999446414210613e-01
4.8999999999999986e+00 +4.6383779905244991e+00 +0.0000000000000000e+00 +4.8999905774227193e+00 -3.3967348648990571e-03 +0.0000000000000000e+00 +9.9999423107948870e-01
4.9999999999999982e+00 +4.6380348510054903e+00 +0.0000000000000000e+00 +4.9999899886773163e+00 -3.4660555088453717e-03 +0.0000000000000000e+00 +9.9999399321156424e-01
5.0999999999999979e+00 +4.6376847794240241e+00 +0.0000000000000000e+00 +5.0999893759048556e+00 -3.5353761139840820e-03 +0.0000000000000000e+00 +9.9999375053833861e-01
5.1999999999999975e+00 +4.6373277757839961e+00 +0.0000000000000000e+00 +5.1999887386248078e+00 -3.6046966800604135e-03 +0.0000000000000000e+00 +9.9999350305981738e-01
5.2999999999999972e+00 +4.6369638400893178e+00 +0.0000000000000000e+00 +5.2999880763566427e+00 -3.6740172069713892e-03 +0.0000000000000000e+00 +9.9999325077600554e-01
5.3999999999999968e+00 +4.6365929723439052e+00 +0.0000000000000000e+00 +5.3999873886198326e+00 -3.7433376947658514e-03 +0.0000000000000000e+00 +9.9999299368690742e-01
5.4999999999999964e+00 +4.6362151725516618e+00 +0.0000000000000000e+00 +5.4999866749338482e+00 -3.8126581436444852e-03 +0.0000000000000000e+00 +9.9999273179252657e-01
5.5999999999999961e+00 +4.6358304407164619e+00 +0.0000000000000000e+00 +5.5999859348181618e+00 -3.8819785539598406e-03 +0.0000000000000000e+00 +9.9999246509286599e-01
5.6999999999999957e+00 +4.6354387768421388e+00 +0.0000000000000000e+00 +5.6999851677922457e+00 -3.9512989262163586e-03 +0.0000000000000000e+00 +9.9999219358792790e-01
5.7999999999999954e+00 +4.6350401809324655e+00 +0.0000000000000000e+00 +5.7999843733755716e+00 -4.0206192610703941e-03 +0.0000000000000000e+00 +9.9999191727771364e-01
5.8999999999999950e+00 +4.6346346529911440e+00 +0.0000000000000000e+00 +5.8999835510876126e+00 -4.0899395593302435e-03 +0.0000000000000000e+00 +9.9999163616222375e-01
5.9999999999999947e+00 +4.6342221930217873e+00 +0.0000000000000000e+00 +5.9999827004478403e+00 -4.1592598219561683e-03 +0.0000000000000000e+00 +9.9999135024145769e-01
6.0999999999999943e+00 +4.6338028010279038e+00 +0.0000000000000000e+00 +6.0999818209757279e+00 -4.2285800500496580e-03 +0.0000000000000000e+00 +9.9999105951541412e-01
6.1999999999999940e+00 +4.6333764770128907e+00 +0.0000000000000000e+00 +6.1999809121907470e+00 -4.2979002447349392e-03 +0.0000000000000000e+00 +9.9999076398409126e-01
6.2999999999999936e+00 +4.6329432209800361e+00 +0.0000000000000000e+00 +6.2999799736123698e+00 -4.3672204070403968e-03 +0.0000000000000000e+00 +9.9999046364748723e-01
6.3999999999999932e+00 +4.6325030329325312e+00 +0.0000000000000000e+00 +6.3999790047600680e+00 -4.4365405378877345e-03 +0.0000000000000000e+00 +9.9999015850560036e-01
6.4999999999999929e+00 +4.6320559128734802e+00 +0.0000000000000000e+00 +6.4999780051533138e+00 -4.5058606380919070e-03 +0.0000000000000000e+00 +9.9998984855842921e-01
6.5999999999999925e+00 +4.6316018608059109e+00 +0.0000000000000000e+00 +6.5999769743115779e+00 -4.5751807083610563e-03 +0.0000000000000000e+00 +9.9998953380597233e-01
6.6999999999999922e+00 +4.6311408767327853e+00 +0.0000000000000000e+00 +6.6999759117543318e+00 -4.6445007492964419e-03 +0.0000000000000000e+00 +9.9998921424822873e-01
6.7999999999999918e+00 +4.6306729606570123e+00 +0.0000000000000000e+00 +6.7999748170010470e+00 -4.7138207613923707e-03 +0.0000000000000000e+00 +9.9998888988519752e-01
6.8999999999999915e+00 +4.6301981125814553e+00 +0.0000000000000000e+00 +6.8999736895711949e+00 -4.7831407450361213e-03 +0.0000000000000000e+00 +9.9998856071687814e-01
6.9999999999999911e+00 +4.6297163325089441e+00 +0.0000000000000000e+00 +6.9999725289842463e+00 -4.8524607005078664e-03 +0.0000000000000000e+00 +9.9998822674327037e-01
7.0999999999999908e+00 +4.6292276204422871e+00 +0.0000000000000000e+00 +7.0999713347596725e+00 -4.9217806279805943e-03 +0.0000000000000000e+00 +9.9998788796437443e-01
7.1999999999999904e+00 +4.6287319763842794e+00 +0.0000000000000000e+00 +7.1999701064169450e+00 -4.9911005275200286e-03 +0.0000000000000000e+00 +9.9998754438019100e-01
7.2999999999999901e+00 +4.6282294003377151e+00 +0.0000000000000000e+00 +7.2999688434755345e+00 -5.0604203990845392e-03 +0.0000000000000000e+00 +9.9998719599072106e-01
7.3999999999999897e+00 +4.6277198923053993e+00 +0.0000000000000000e+00 +7.3999675454549125e+00 -5.1297402425250589e-03 +0.0000000000000000e+00 +9.9998684279596617e-01
7.4999999999999893e+00 +4.6272034522901562e+00 +0.0000000000000000e+00 +7.4999662118745514e+00 -5.1990600575849916e-03 +0.0000000000000000e+00 +9.9998648479592855e-01
7.5999999999999890e+00 +4.6266800802948405e+00 +0.0000000000000000e+00 +7.5999648422539225e+00 -5.2683798439001192e-03 +0.0000000000000000e+00 +9.9998612199061077e-01
7.6999999999999886e+00 +4.6261497763223494e+00 +0.0000000000000000e+00 +7.6999634361124976e+00 -5.3376996009985083e-03 +0.0000000000000000e+00 +9.9998575438001602e-01
7.7999999999999883e+00 +4.6256125403756334e+00 +0.0000000000000000e+00 +7.7999619929697497e+00 -5.4070193283004119e-03 +0.0000000000000000e+00 +9.9998538196414832e-01
7.8999999999999879e+00 +4.6250683724577053e+00 +0.0000000000000000e+00 +7.8999605123451513e+00 -5.4763390251181682e-03 +0.0000000000000000e+00 +9.9998500474301222e-01
7.9999999999999876e+00 +4.6245172725716523e+00 +0.0000000000000000e+00 +7.9999589937581765e+00 -5.5456586906560985e-03 +0.0000000000000000e+00 +9.9998462271661304e-01
8.0999999999999872e+00 +4.6239592407206462e+00 +0.0000000000000000e+00 +8.0999574367282996e+00 -5.6149783240162137e-03 +0.0000000000000000e+00 +9.9998423588495688e-01
8.1999999999999869e+00 +4.6233942769079528e+00 +0.0000000000000000e+00 +8.1999558407749937e+00 -5.6842979242621152e-03 +0.0000000000000000e+00 +9.9998384424805009e-01
8.2999999999999865e+00 +4.6228223811369284e+00 +0.0000000000000000e+00 +8.2999542054177340e+00 -5.7536174904830378e-03 +0.0000000000000000e+00 +9.9998344780589921e-01
8.3999999999999861e+00 +4.6222435534110202e+00 +0.0000000000000000e+00 +8.3999525301759981e+00 -5.8229370217997229e-03 +0.0000000000000000e+00 +9.9998304655851067e-01
8.4999999999999858e+00 +4.6216577937337604e+00 +0.0000000000000000e+00 +8.4999508145692619e+00 -5.8922565173644692e-03 +0.0000000000000000e+00 +9.9998264050589092e-01
8.5999999999999854e+00 +4.6210651021087656e+00 +0.0000000000000000e+00 +8.5999490581170015e+00 -5.9615759763611822e-03 +0.0000000000000000e+00 +9.9998222964804651e-01
8.6999999999999851e+00 +4.6204654785397326e+00 +0.0000000000000000e+00 +8.6999472603386963e+00 -6.0308953980054269e-03 +0.0000000000000000e+00 +9.9998181398498376e-01
8.7999999999999847e+00 +4.6198589230304341e+00 +0.0000000000000000e+00 +8.7999454207538239e+00 -6.1002147815444841e-03 +0.0000000000000000e+00 +9.9998139351670912e-01
8.8999999999999844e+00 +4.6192454355847179e+00 +0.0000000000000000e+00 +8.8999435388818640e+00 -6.1695341262574047e-03 +0.0000000000000000e+00 +9.9998096824322880e-01
8.9999999999999840e+00 +4.6186250162064999e+00 +0.0000000000000000e+00 +8.9999416142422959e+00 -6.2388534314550695e-03 +0.0000000000000000e+00 +9.9998053816454913e-01
9.0999999999999837e+00 +4.6179976648997654e+00 +0.0000000000000000e+00 +9.0999396463546010e+00 -6.3081726964802519e-03 +0.0000000000000000e+00 +9.9998010328067621e-01
9.1999999999999833e+00 +4.6173633816685635e+00 +0.0000000000000000e+00 +9.1999376347382587e+00 -6.3774919207076784e-03 +0.0000000000000000e+00 +9.9997966359161616e-01
9.2999999999999829e+00 +4.6167221665170040e+00 +0.0000000000000000e+00 +9.2999355789127520e+00 -6.4468111035440936e-03 +0.0000000000000000e+00 +9.9997921909737486e-01
9.3999999999999826e+00 +4.6160740194492531e+00 +0.0000000000000000e+00 +9.3999334783975623e+00 -6.5161302444283285e-03 +0.0000000000000000e+00 +9.9997876979795830e-01
9.4999999999999822e+00 +4.6154189404695343e+00 +0.0000000000000000e+00 +9.4999313327121726e+00 -6.5854493428313659e-03 +0.0000000000000000e+00 +9.9997831569337214e-01
9.5999999999999819e+00 +4.6147569295821196e+00 +0.0000000000000000e+00 +9.5999291413760659e+00 -6.6547683982564141e-03 +0.0000000000000000e+00 +9.9997785678362194e-01
9.6999999999999815e+00 +4.6140879867913309e+00 +0.0000000000000000e+00 +9.6999269039087253e+00 -6.7240874102389783e-03 +0.0000000000000000e+00 +9.9997739306871325e-01
9.7999999999999812e+00 +4.6134121121015346e+00 +0.0000000000000000e+00 +9.7999246198296373e+00 -6.7934063783469346e-03 +0.0000000000000000e+00 +9.9997692454865128e-01
9.8999999999999808e+00 +4.6127293055171377e+00 +0.0000000000000000e+00 +9.8999222886582849e+00 -6.8627253021806070e-03 +0.0000000000000000e+00 +9.9997645122344114e-01
9.9999999999999805e+00 +4.6120395670425864e+00 +0.0000000000000000e+00 +9.9999199099141549e+00 -6.9320441813728447e-03 +0.0000000000000000e+00 +9.9997597309308783e-01
1.0099999999999980e+01 +4.6113428966823626e+00 +0.0000000000000000e+00 +1.0099917483116732e+01 -7.0013630155869025e-03 +0.0000000000000000e+00 +9.9997549015759601e-01
1.0199999999999980e+01 +4.6106392944409800e+00 +0.0000000000000000e+00 +1.0199915007785503e+01 -7.0706818044922407e-03 +0.0000000000000000e+00 +9.9997500241697046e-01
1.0299999999999979e+01 +4.6099287603229859e+00 +0.0000000000000000e+00 +1.0299912483439956e+01 -7.1400005477402608e-03 +0.0000000000000000e+00 +9.9997450987121606e-01
1.0399999999999979e+01 +4.6092112943329653e+00 +0.0000000000000000e+00 +1.0399909909599575e+01 -7.2093192449621171e-03 +0.0000000000000000e+00 +9.9997401252033780e-01
1.0499999999999979e+01 +4.6084868964755401e+00 +0.0000000000000000e+00 +1.0499907285783852e+01 -7.2786378957687475e-03 +0.0000000000000000e+00 +9.9997351036434101e-01
1.0599999999999978e+01 +4.6077555667553725e+00 +0.0000000000000000e+00 +1.0599904611512272e+01 -7.3479564997509057e-03 +0.0000000000000000e+00 +9.9997300340323103e-01
1.0699999999999978e+01 +4.6070173051771652e+00 +0.0000000000000000e+00 +1.0699901886304326e+01 -7.4172750564791921e-03 +0.0000000000000000e+00 +9.9997249163701352e-01
1.0799999999999978e+01 +4.6062721117456666e+00 +0.0000000000000000e+00 +1.0799899109679505e+01 -7.4865935655040834e-03 +0.0000000000000000e+00 +9.9997197506569424e-01
1.0899999999999977e+01 +4.6055199864656702e+00 +0.0000000000000000e+00 +1.0899896281157295e+01 -7.5559120263559701e-03 +0.0000000000000000e+00 +9.9997145368927931e-01
1.0999999999999977e+01 +4.6047609293420173e+00 +0.0000000000000000e+00 +1.0999893400257189e+01 -7.6252304385451847e-03 +0.0000000000000000e+00 +9.9997092750777494e-01
1.1099999999999977e+01 +4.6039949403796001e+00 +0.0000000000000000e+00 +1.1099890466498680e+01 -7.6945488015620388e-03 +0.0000000000000000e+00 +9.9997039652118747e-01
1.1199999999999976e+01 +4.6032220195833613e+00 +0.0000000000000000e+00 +1.1199887479401259e+01 -7.7638671148768570e-03 +0.0000000000000000e+00 +9.9996986072952376e-01
1.1299999999999976e+01 +4.6024421669582996e+00 +0.0000000000000000e+00 +1.1299884438484417e+01 -7.8331853779400103e-03 +0.0000000000000000e+00 +9.9996932013279061e-01
1.1399999999999975e+01 +4.6016553825094677e+00 +0.0000000000000000e+00 +1.1399881343267650e+01 -7.9025035901819553e-03 +0.0000000000000000e+00 +9.9996877473099521e-01
1.1499999999999975e+01 +4.6008616662419772e+00 +0.0000000000000000e+00 +1.1499878193270449e+01 -7.9718217510132659e-03 +0.0000000000000000e+00 +9.9996822452414491e-01
1.1599999999999975e+01 +4.6000610181609991e+00 +0.0000000000000000e+00 +1.1599874988012312e+01 -8.0411398598246725e-03 +0.0000000000000000e+00 +9.9996766951224747e-01
1.1699999999999974e+01 +4.5992534382717674e+00 +0.0000000000000000e+00 +1.1699871727012731e+01 -8.1104579159871001e-03 +0.0000000000000000e+00 +9.9996710969531077e-01
1.1799999999999974e+01 +4.5984389265795782e+00 +0.0000000000000000e+00 +1.1799868409791205e+01 -8.1797759188517068e-03 +0.0000000000000000e+00 +9.9996654507334293e-01
