# field on trajectory
# s[mm] rx[mm] ry[mm] rz[mm] bx[T] by[T] bz[T]
0.0000000000000000e+00 +4.6467000000000001e+00 +0.0000000000000000e+00 +0.0000000000000000e+00 +1.4162098989457885e-02 -2.6015354763751952e-01 +1.7904327354056027e-03
1.0000000000000001e-01 +4.6466974002341725e+00 +0.0000000000000000e+00 +9.9999999954941465e-02 +1.4162104825238485e-02 -2.6015353091444665e-01 +1.7904113707320594e-03
2.0000000000000001e-01 +4.6466896009369041e+00 +0.0000000000000000e+00 +1.9999999963953163e-01 +1.4162107684593115e-02 -2.6015351881347532e-01 +1.7903918317981324e-03
3.0000000000000004e-01 +4.6466766021084576e+00 +0.0000000000000000e+00 +2.9999999878341926e-01 +1.4162107628127892e-02 -2.6015351117957020e-01 +1.7903739597615914e-03
4.0000000000000002e-01 +4.6466584037490213e+00 +0.0000000000000000e+00 +3.9999999711625317e-01 +1.4162104716470836e-02 -2.6015350785772207e-01 +1.7903575958056511e-03
5.0000000000000000e-01 +4.6466350058587107e+00 +0.0000000000000000e+00 +4.9999999436768217e-01 +1.4162099010268344e-02 -2.6015350869294540e-01 +1.7903425811354645e-03
5.9999999999999998e-01 +4.6466064084375729e+00 +0.0000000000000000e+00 +5.9999999026735495e-01 +1.4162090570181723e-02 -2.6015351353027610e-01 +1.7903287569746209e-03
6.9999999999999996e-01 +4.6465726114855883e+00 +0.0000000000000000e+00 +6.9999998454492030e-01 +1.4162079456883716e-02 -2.6015352221477067e-01 +1.7903159645616452e-03
7.9999999999999993e-01 +4.6465336150026753e+00 +0.0000000000000000e+00 +7.9999997693002700e-01 +1.4162065731054977e-02 -2.6015353459150292e-01 +1.7903040451464837e-03
8.9999999999999991e-01 +4.6464894189886925e+00 +0.0000000000000000e+00 +8.9999996715232367e-01 +1.4162049453380619e-02 -2.6015355050556238e-01 +1.7902928399870094e-03
9.9999999999999989e-01 +4.6464400234434411e+00 +0.0000000000000000e+00 +9.9999995494145888e-01 +1.4162030684546715e-02 -2.6015356980205273e-01 +1.7902821903455130e-03
1.0999999999999999e+00 +4.6463854283666697e+00 +0.0000000000000000e+00 +1.0999999400270810e+00 +1.4162009485236812e-02 -2.6015359232608937e-01 +1.7902719374852001e-03
1.2000000000000000e+00 +4.6463256337580754e+00 +0.0000000000000000e+00 +1.1999999221388387e+00 +1.4161985916128446e-02 -2.6015361792279795e-01 +1.7902619226666892e-03
1.3000000000000000e+00 +4.6462606396173092e+00 +0.0000000000000000e+00 +1.2999999010063801e+00 +1.4161960037889647e-02 -2.6015364643731126e-01 +1.7902519871445086e-03
1.4000000000000001e+00 +4.6461904459439767e+00 +0.0000000000000000e+00 +1.3999998763593535e+00 +1.4161931911175490e-02 -2.6015367771476855e-01 +1.7902419721635972e-03
1.5000000000000002e+00 +4.6461150527376436e+00 +0.0000000000000000e+00 +1.4999998479274070e+00 +1.4161901596624563e-02 -2.6015371160031286e-01 +1.7902317189557979e-03
1.6000000000000003e+00 +4.6460344599978356e+00 +0.0000000000000000e+00 +1.5999998154401887e+00 +1.4161869154855521e-02 -2.6015374793908913e-01 +1.7902210687363654e-03
1.7000000000000004e+00 +4.6459486677240456e+00 +0.0000000000000000e+00 +1.6999997786273460e+00 +1.4161834646463606e-02 -2.6015378657624200e-01 +1.7902098627004641e-03
1.8000000000000005e+00 +4.6458576759157326e+00 +0.0000000000000000e+00 +1.7999997372185268e+00 +1.4161798132017152e-02 -2.6015382735691445e-01 +1.7901979420196690e-03
1.9000000000000006e+00 +4.6457614845723283e+00 +0.0000000000000000e+00 +1.8999996909433787e+00 +1.4161759672054137e-02 -2.6015387012624497e-01 +1.7901851478384777e-03
2.0000000000000004e+00 +4.6456600936932384e+00 +0.0000000000000000e+00 +1.9999996395315489e+00 +1.4161719327078669e-02 -2.6015391472936661e-01 +1.7901713212708063e-03
2.1000000000000005e+00 +4.6455535032778457e+00 +0.0000000000000000e+00 +2.0999995827126847e+00 +1.4161677194993803e-02 -2.6015396100607585e-01 +1.7901563543549360e-03
2.2000000000000006e+00 +4.6454417133255133e+00 +0.0000000000000000e+00 +2.1999995202164335e+00 +1.4161633523414057e-02 -2.6015400877484463e-01 +1.7901403429398987e-03
2.3000000000000007e+00 +4.6453247238355893e+00 +0.0000000000000000e+00 +2.2999994517724418e+00 +1.4161588597363151e-02 -2.6015405784879397e-01 +1.7901234338292020e-03
2.4000000000000008e+00 +4.6452025348074093e+00 +0.0000000000000000e+00 +2.3999993771103560e+00 +1.4161542701836798e-02 -2.6015410804101891e-01 +1.7901057738250019e-03
2.5000000000000009e+00 +4.6450751462403019e+00 +0.0000000000000000e+00 +2.4999992959598232e+00 +1.4161496121801152e-02 -2.6015415916458368e-01 +1.7900875097289224e-03
2.6000000000000010e+00 +4.6449425581335886e+00 +0.0000000000000000e+00 +2.5999992080504897e+00 +1.4161449142191352e-02 -2.6015421103252040e-01 +1.7900687883428759e-03
2.7000000000000011e+00 +4.6448047704865925e+00 +0.0000000000000000e+00 +2.6999991131120016e+00 +1.4161402047910008e-02 -2.6015426345782372e-01 +1.7900497564698845e-03
2.8000000000000012e+00 +4.6446617832986377e+00 +0.0000000000000000e+00 +2.7999990108740049e+00 +1.4161355123825714e-02 -2.6015431625344976e-01 +1.7900305609148926e-03
2.9000000000000012e+00 +4.6445135965690572e+00 +0.0000000000000000e+00 +2.8999989010661458e+00 +1.4161308654771516e-02 -2.6015436923231056e-01 +1.7900113484855869e-03
3.0000000000000013e+00 +4.6443602102971919e+00 +0.0000000000000000e+00 +2.9999987834180697e+00 +1.4161262925543462e-02 -2.6015442220727286e-01 +1.7899922659932056e-03
3.1000000000000014e+00 +4.6442016244823980e+00 +0.0000000000000000e+00 +3.0999986576594227e+00 +1.4161218220899078e-02 -2.6015447499115391e-01 +1.7899734602533528e-03
3.2000000000000015e+00 +4.6440378391240502e+00 +0.0000000000000000e+00 +3.1999985235198500e+00 +1.4161174825555876e-02 -2.6015452739671768e-01 +1.7899550780868044e-03
3.3000000000000016e+00 +4.6438688542215445e+00 +0.0000000000000000e+00 +3.2999983807289972e+00 +1.4161133024189854e-02 -2.6015457923667290e-01 +1.7899372663203177e-03
3.4000000000000017e+00 +4.6436946697743009e+00 +0.0000000000000000e+00 +3.3999982290165089e+00 +1.4161093101434024e-02 -2.6015463032366887e-01 +1.7899201717874352e-03
3.5000000000000018e+00 +4.6435152857817705e+00 +0.0000000000000000e+00 +3.4999980681120308e+00 +1.4161055341876875e-02 -2.6015468047029250e-01 +1.7899039413292819e-03
3.6000000000000019e+00 +4.6433307022434365e+00 +0.0000000000000000e+00 +3.5999978977452081e+00 +1.4161020030060943e-02 -2.6015472948906487e-01 +1.7898887217953721e-03
3.7000000000000020e+00 +4.6431409191588173e+00 +0.0000000000000000e+00 +3.6999977176456853e+00 +1.4160987450481255e-02 -2.6015477719243851e-01 +1.7898746600443982e-03
3.8000000000000020e+00 +4.6429459365274743e+00 +0.0000000000000000e+00 +3.7999975275431073e+00 +1.4160957887583873e-02 -2.6015482339279339e-01 +1.7898619029450261e-03
3.9000000000000021e+00 +4.6427457543490105e+00 +0.0000000000000000e+00 +3.8999973271671191e+00 +1.4160931625764381e-02 -2.6015486790243408e-01 +1.7898505973766867e-03
4.0000000000000018e+00 +4.6425403726230785e+00 +0.0000000000000000e+00 +3.9999971162473651e+00 +1.4160908949366431e-02 -2.6015491053358686e-01 +1.7898408902303599e-03
4.1000000000000014e+00 +4.6423297913493817e+00 +0.0000000000000000e+00 +4.0999968945134899e+00 +1.4160890048929859e-02 -2.6015495115753268e-01 +1.7898328737064404e-03
4.2000000000000011e+00 +4.6421140105276768e+00 +0.0000000000000000e+00 +4.1999966616951392e+00 +1.4160874739937955e-02 -2.6015498988206415e-01 +1.7898264211838276e-03
4.3000000000000007e+00 +4.6418930301577728e+00 +0.0000000000000000e+00 +4.2999964175219567e+00 +1.4160862744142161e-02 -2.6015502687410880e-01 +1.7898213513315923e-03
4.4000000000000004e+00 +4.6416668502395284e+00 +0.0000000000000000e+00 +4.3999961617235881e+00 +1.4160853783340675e-02 -2.6015506230059060e-01 +1.7898174828204969e-03
4.5000000000000000e+00 +4.6414354707728460e+00 +0.0000000000000000e+00 +4.4999958940296771e+00 +1.4160847579382753e-02 -2.6015509632843170e-01 +1.7898146343230865e-03
4.5999999999999996e+00 +4.6411988917576714e+00 +0.0000000000000000e+00 +4.5999956141698686e+00 +1.4160843854172944e-02 -2.6015512912455407e-01 +1.7898126245137938e-03
4.6999999999999993e+00 +4.6409571131939877e+00 +0.0000000000000000e+00 +4.6999953218738071e+00 +1.4160842329675400e-02 -2.6015516085588047e-01 +1.7898112720690440e-03
4.7999999999999989e+00 +4.6407101350818145e+00 +0.0000000000000000e+00 +4.7999950168711374e+00 +1.4160842727918118e-02 -2.6015519168933682e-01 +1.7898103956673615e-03
4.8999999999999986e+00 +4.6404579574212033e+00 +0.0000000000000000e+00 +4.8999946988915042e+00 +1.4160844770997178e-02 -2.6015522179185357e-01 +1.7898098139894809e-03
4.9999999999999982e+00 +4.6402005802122339e+00 +0.0000000000000000e+00 +4.9999943676645522e+00 +1.4160848181081050e-02 -2.6015525133036749e-01 +1.7898093457184676e-03
5.0999999999999979e+00 +4.6399380034550113e+00 +0.0000000000000000e+00 +5.0999940229199261e+00 +1.4160852680414759e-02 -2.6015528047182301e-01 +1.7898088095398314e-03
5.1999999999999975e+00 +4.6396702271496624e+00 +0.0000000000000000e+00 +5.1999936643872697e+00 +1.4160857991324213e-02 -2.6015530938317427e-01 +1.7898080241416554e-03
5.2999999999999972e+00 +4.6393972512963328e+00 +0.0000000000000000e+00 +5.2999932917962287e+00 +1.4160863836220358e-02 -2.6015533823138637e-01 +1.7898068082147220e-03
5.3999999999999968e+00 +4.6391190758951844e+00 +0.0000000000000000e+00 +5.3999929048764468e+00 +1.4160869937603444e-02 -2.6015536718343751e-01 +1.7898049804526449e-03
5.4999999999999964e+00 +4.6388357009463901e+00 +0.0000000000000000e+00 +5.4999925033575678e+00 +1.4160876018067233e-02 -2.6015539640632007e-01 +1.7898023595520093e-03
5.5999999999999961e+00 +4.6385471264501321e+00 +0.0000000000000000e+00 +5.5999920869692366e+00 +1.4160881800303206e-02 -2.6015542606704278e-01 +1.7897987642125118e-03
5.6999999999999957e+00 +4.6382533524065970e+00 +0.0000000000000000e+00 +5.6999916554410976e+00 +1.4160887007104783e-02 -2.6015545633263198e-01 +1.7897940131371068e-03
5.7999999999999954e+00 +4.6379543788159738e+00 +0.0000000000000000e+00 +5.7999912085027949e+00 +1.4160891361371487e-02 -2.6015548737013344e-01 +1.7897879250321630e-03
5.8999999999999950e+00 +4.6376502056784501e+00 +0.0000000000000000e+00 +5.8999907458839722e+00 +1.4160894586113167e-02 -2.6015551934661418e-01 +1.7897803186076144e-03
5.9999999999999947e+00 +4.6373408329942087e+00 +0.0000000000000000e+00 +5.9999902673142733e+00 +1.4160896404454136e-02 -2.6015555242916361e-01 +1.7897710125771274e-03
6.0999999999999943e+00 +4.6370262607634256e+00 +0.0000000000000000e+00 +6.0999897725233430e+00 +1.4160896586245832e-02 -2.6015558675496742e-01 +1.7897598760225697e-03
6.1999999999999940e+00 +4.6367064889862641e+00 +0.0000000000000000e+00 +6.1999892612408241e+00 +1.4160895087915159e-02 -2.6015562234152056e-01 +1.7897469795319992e-03
6.2999999999999936e+00 +4.6363815176628780e+00 +0.0000000000000000e+00 +6.2999887331963595e+00 +1.4160891912551975e-02 -2.6015565917648742e-01 +1.7897324440523440e-03
6.3999999999999932e+00 +4.6360513467934092e+00 +0.0000000000000000e+00 +6.3999881881195941e+00 +1.4160887063264731e-02 -2.6015569724765997e-01 +1.7897163904906808e-03
6.4999999999999929e+00 +4.6357159763779903e+00 +0.0000000000000000e+00 +6.4999876257401699e+00 +1.4160880543180465e-02 -2.6015573654296409e-01 +1.7896989397126369e-03
6.5999999999999925e+00 +4.6353754064167418e+00 +0.0000000000000000e+00 +6.5999870457877305e+00 +1.4160872355444828e-02 -2.6015577705046405e-01 +1.7896802125407763e-03
6.6999999999999922e+00 +4.6350296369097759e+00 +0.0000000000000000e+00 +6.6999864479919191e+00 +1.4160862503222080e-02 -2.6015581875836880e-01 +1.7896603297529914e-03
6.7999999999999918e+00 +4.6346786678571927e+00 +0.0000000000000000e+00 +6.7999858320823785e+00 +1.4160850989695157e-02 -2.6015586165503618e-01 +1.7896394120808920e-03
6.8999999999999915e+00 +4.6343224992590848e+00 +0.0000000000000000e+00 +6.8999851977887507e+00 +1.4160837818065666e-02 -2.6015590572897951e-01 +1.7896175802081854e-03
6.9999999999999911e+00 +4.6339611311155338e+00 +0.0000000000000000e+00 +6.9999845448406788e+00 +1.4160822991553971e-02 -2.6015595096887156e-01 +1.7895949547690583e-03
7.0999999999999908e+00 +4.6335945634266125e+00 +0.0000000000000000e+00 +7.0999838729678038e+00 +1.4160806513399189e-02 -2.6015599736355094e-01 +1.7895716563465554e-03
7.1999999999999904e+00 +4.6332227961923840e+00 +0.0000000000000000e+00 +7.1999831818997686e+00 +1.4160788386859345e-02 -2.6015604490202682e-01 +1.7895478054709502e-03
7.2999999999999901e+00 +4.6328458294129042e+00 +0.0000000000000000e+00 +7.2999824713662154e+00 +1.4160768615211381e-02 -2.6015609357348440e-01 +1.7895235226181216e-03
7.3999999999999897e+00 +4.6324636630882194e+00 +0.0000000000000000e+00 +7.3999817410967852e+00 +1.4160747201751259e-02 -2.6015614336729037e-01 +1.7894989282079140e-03
7.4999999999999893e+00 +4.6320762972183678e+00 +0.0000000000000000e+00 +7.4999809908211201e+00 +1.4160724149794078e-02 -2.6015619427299796e-01 +1.7894741426025085e-03
7.5999999999999890e+00 +4.6316837318033786e+00 +0.0000000000000000e+00 +7.5999802202688613e+00 +1.4160699462674139e-02 -2.6015624628035200e-01 +1.7894492861047738e-03
7.6999999999999886e+00 +4.6312859668432740e+00 +0.0000000000000000e+00 +7.6999794291696499e+00 +1.4160673143745136e-02 -2.6015629937929480e-01 +1.7894244789566334e-03
7.7999999999999883e+00 +4.6308830023380683e+00 +0.0000000000000000e+00 +7.7999786172531271e+00 +1.4160645196380226e-02 -2.6015635355997030e-01 +1.7893998413374081e-03
7.8999999999999879e+00 +4.6304748382877685e+00 +0.0000000000000000e+00 +7.8999777842489332e+00 +1.4160615623972188e-02 -2.6015640881273117e-01 +1.7893754933621712e-03
7.9999999999999876e+00 +4.6300614746923729e+00 +0.0000000000000000e+00 +7.9999769298867083e+00 +1.4160584429933593e-02 -2.6015646512814150e-01 +1.7893515550800904e-03
8.0999999999999872e+00 +4.6296429115518745e+00 +0.0000000000000000e+00 +8.0999760538960945e+00 +1.4160551660730334e-02 -2.6015652245804821e-01 +1.7893281143887259e-03
8.1999999999999869e+00 +4.6292191488662588e+00 +0.0000000000000000e+00 +8.1999751560067295e+00 +1.4160517535059649e-02 -2.6015658059855340e-01 +1.7893051307348166e-03
8.2999999999999865e+00 +4.6287901866355101e+00 +0.0000000000000000e+00 +8.2999742359482553e+00 +1.4160482314616332e-02 -2.6015663930667471e-01 +1.7892825314869934e-03
8.3999999999999861e+00 +4.6283560248596149e+00 +0.0000000000000000e+00 +8.3999732934503104e+00 +1.4160446260985744e-02 -2.6015669833930305e-01 +1.7892602440773384e-03
8.4999999999999858e+00 +4.6279166635385680e+00 +0.0000000000000000e+00 +8.4999723282425350e+00 +1.4160409635640001e-02 -2.6015675745319683e-01 +1.7892381960037907e-03
8.5999999999999854e+00 +4.6274721026723764e+00 +0.0000000000000000e+00 +8.5999713400545694e+00 +1.4160372699934125e-02 -2.6015681640497684e-01 +1.7892163148325606e-03
8.6999999999999851e+00 +4.6270223422610641e+00 +0.0000000000000000e+00 +8.6999703286160521e+00 +1.4160335715102213e-02 -2.6015687495112122e-01 +1.7891945282005393e-03
8.7999999999999847e+00 +4.6265673823046765e+00 +0.0000000000000000e+00 +8.7999692936566216e+00 +1.4160298942253602e-02 -2.6015693284796082e-01 +1.7891727638177134e-03
8.8999999999999844e+00 +4.6261072228032880e+00 +0.0000000000000000e+00 +8.8999682349059182e+00 +1.4160262642369029e-02 -2.6015698985167346e-01 +1.7891509494695861e-03
8.9999999999999840e+00 +4.6256418637570027e+00 +0.0000000000000000e+00 +8.9999671520935802e+00 +1.4160227076296786e-02 -2.6015704571827963e-01 +1.7891290130195878e-03
9.0999999999999837e+00 +4.6251713051659635e+00 +0.0000000000000000e+00 +9.0999660449492481e+00 +1.4160192504748852e-02 -2.6015710020363675e-01 +1.7891068824115028e-03
9.1999999999999833e+00 +4.6246955470303535e+00 +0.0000000000000000e+00 +9.1999649132025603e+00 +1.4160159188297081e-02 -2.6015715306343457e-01 +1.7890844856718862e-03
9.2999999999999829e+00 +4.6242145893504034e+00 +0.0000000000000000e+00 +9.2999637565831570e+00 +1.4160127387369320e-02 -2.6015720405319059e-01 +1.7890617509124923e-03
9.3999999999999826e+00 +4.6237284321263941e+00 +0.0000000000000000e+00 +9.3999625748206768e+00 +1.4160097362245549e-02 -2.6015725292824399e-01 +1.7890386063326978e-03
9.4999999999999822e+00 +4.6232370753586638e+00 +0.0000000000000000e+00 +9.4999613676447598e+00 +1.4160069373054042e-02 -2.6015729944375166e-01 +1.7890149802219288e-03
9.5999999999999819e+00 +4.6227405190476123e+00 +0.0000000000000000e+00 +9.5999601347850447e+00 +1.4160043679767476e-02 -2.6015734335468305e-01 +1.7889908009620940e-03
9.6999999999999815e+00 +4.6222387631937041e+00 +0.0000000000000000e+00 +9.6999588759711717e+00 +1.4160020542199088e-02 -2.6015738441581465e-01 +1.7889659970300135e-03
9.7999999999999812e+00 +4.6217318077974765e+00 +0.0000000000000000e+00 +9.7999575909327810e+00 +1.4160000219998786e-02 -2.6015742238172618e-01 +1.7889404969998563e-03
9.8999999999999808e+00 +4.6212196528595406e+00 +0.0000000000000000e+00 +9.8999562793995128e+00 +1.4159982972649266e-02 -2.6015745700679438e-01 +1.7889142295455720e-03
9.9999999999999805e+00 +4.6207022983805901e+00 +0.0000000000000000e+00 +9.9999549411010076e+00 +1.4159969059462174e-02 -2.6015748804518929e-01 +1.7888871234433357e-03
1.0099999999999980e+01 +4.6201797443614039e+00 +0.0000000000000000e+00 +1.0099953575766907e+01 +1.4159958647326613e-02 -2.6015751527262720e-01 +1.7888591400447372e-03
1.0199999999999980e+01 +4.6196519908028497e+00 +0.0000000000000000e+00 +1.0199952183126852e+01 +1.4159951533558418e-02 -2.6015753855180124e-01 +1.7888303708024174e-03
1.0299999999999979e+01 +4.6191190377058904e+00 +0.0000000000000000e+00 +1.0299950762910484e+01 +1.4159947423057749e-02 -2.6015755776711763e-01 +1.7888009396568743e-03
1.0399999999999979e+01 +4.6185808850715828e+00 +0.0000000000000000e+00 +1.0399949314847445e+01 +1.4159946020832842e-02 -2.6015757280288854e-01 +1.7887709704594230e-03
1.0499999999999979e+01 +4.6180375329010817e+00 +0.0000000000000000e+00 +1.0499947838667380e+01 +1.4159947032003033e-02 -2.6015758354332841e-01 +1.7887405869697927e-03
1.0599999999999978e+01 +4.6174889811956410e+00 +0.0000000000000000e+00 +1.0599946334099929e+01 +1.4159950161801785e-02 -2.6015758987255350e-01 +1.7887099128537213e-03
1.0699999999999978e+01 +4.6169352299566180e+00 +0.0000000000000000e+00 +1.0699944800874738e+01 +1.4159955115579683e-02 -2.6015759167457914e-01 +1.7886790716805498e-03
1.0799999999999978e+01 +4.6163762791854737e+00 +0.0000000000000000e+00 +1.0799943238721449e+01 +1.4159961598807459e-02 -2.6015758883331874e-01 +1.7886481869208196e-03
1.0899999999999977e+01 +4.6158121288837766e+00 +0.0000000000000000e+00 +1.0899941647369706e+01 +1.4159969317078934e-02 -2.6015758123258098e-01 +1.7886173819438586e-03
1.0999999999999977e+01 +4.6152427790532036e+00 +0.0000000000000000e+00 +1.0999940026549158e+01 +1.4159977976114070e-02 -2.6015756875606910e-01 +1.7885867800153741e-03
1.1099999999999977e+01 +4.6146682296955435e+00 +0.0000000000000000e+00 +1.1099938375989449e+01 +1.4159987281761854e-02 -2.6015755128737778e-01 +1.7885565042950421e-03
1.1199999999999976e+01 +4.6140884808126996e+00 +0.0000000000000000e+00 +1.1199936695420227e+01 +1.4159996940003326e-02 -2.6015752870999287e-01 +1.7885266778340939e-03
1.1299999999999976e+01 +4.6135035324066900e+00 +0.0000000000000000e+00 +1.1299934984571140e+01 +1.4160006656954492e-02 -2.6015750090728829e-01 +1.7884974235729025e-03
1.1399999999999975e+01 +4.6129133844796524e+00 +0.0000000000000000e+00 +1.1399933243171834e+01 +1.4160016138869271e-02 -2.6015746776252485e-01 +1.7884688643385657e-03
1.1499999999999975e+01 +4.6123180370338455e+00 +0.0000000000000000e+00 +1.1499931470951958e+01 +1.4160025092142411e-02 -2.6015742915884843e-01 +1.7884411228424899e-03
1.1599999999999975e+01 +4.6117174900716496e+00 +0.0000000000000000e+00 +1.1599929667641165e+01 +1.4160033223312446e-02 -2.6015738497928831e-01 +1.7884143216779715e-03
1.1699999999999974e+01 +4.6111117435955720e+00 +0.0000000000000000e+00 +1.1699927832969104e+01 +1.4160040239064543e-02 -2.6015733510675487e-01 +1.7883885833177764e-03
1.1799999999999974e+01 +4.6105007976082470e+00 +0.0000000000000000e+00 +1.1799925966665427e+01 +1.4160045846233441e-02 -2.6015727942403849e-01 +1.7883640301117189e-03
