# multipoles
# s[mm] polynom_b[n=0][T/m^n] polynom_b[n=1][T/m^n] polynom_b[n=2][T/m^n] polynom_b[n=3][T/m^n] polynom_b[n=4][T/m^n] polynom_b[n=5][T/m^n] polynom_b[n=6][T/m^n] 
+0.0000000000000000e+00 +4.3354933877043539e-01 -2.0321099958354075e-03 -3.3493019878403002e-02 +1.8087786918868868e+01 -5.2163893411552783e+02 -1.0412210628651606e+02 -1.8875982229652023e+05 
-1.0000000000000001e-01 +4.3354936527938231e-01 -2.0293896525129863e-03 -3.3329900393719830e-02 +1.8043313619082255e+01 -5.1847819904320579e+02 +3.1021948582437403e+02 -2.4184869263126727e+05 
-2.0000000000000001e-01 +4.3354939823789057e-01 -2.0258953238087240e-03 -3.3350186073182166e-02 +1.7986212078867382e+01 -5.1391494560926765e+02 +7.4999890184940693e+02 -2.9721585348948219e+05 
-3.0000000000000004e-01 +4.3354943709704707e-01 -2.0216267602569094e-03 -3.3545786020318158e-02 +1.7916115964630844e+01 -5.0796888467315222e+02 +1.2186605032878319e+03 -3.5489077999143384e+05 
-4.0000000000000002e-01 +4.3354948130797194e-01 -2.0165837313433524e-03 -3.3908609892195581e-02 +1.7832659322426160e+01 -5.0065975741278334e+02 +1.7196471140470123e+03 -4.1490271882966708e+05 
-5.0000000000000000e-01 +4.3354953032182308e-01 -2.0107660268175237e-03 -3.4430568608861185e-02 +1.7735476659270152e+01 -4.9200732140557278e+02 +2.2563994508444689e+03 -4.7728075025851891e+05 
-5.9999999999999998e-01 +4.3354958358978718e-01 -2.0041734586558856e-03 -3.5103573725725645e-02 +1.7624203027324668e+01 -4.8203136172005759e+02 +2.8323555879903793e+03 -5.4205373145950085e+05 
-6.9999999999999996e-01 +4.3354964056306866e-01 -1.9968058529866613e-03 -3.5919535600314398e-02 +1.7498473843807542e+01 -4.7075172779057158e+02 +3.4509518626083513e+03 -6.0925011154083710e+05 
-7.9999999999999993e-01 +4.3354970069292292e-01 -1.9886630554390478e-03 -3.6870368248147635e-02 +1.7357925077362122e+01 -4.5818823840662208e+02 +4.1156217387763463e+03 -6.7889838224376400e+05 
-8.9999999999999991e-01 +4.3354976343062879e-01 -1.9797449287273553e-03 -3.7947985374771225e-02 +1.7202193215895694e+01 -4.4436076074777526e+02 +4.8297959077152418e+03 -7.5102668923869694e+05 
-9.9999999999999989e-01 +4.3354982822749188e-01 -1.9700513495999306e-03 -3.9144301584854227e-02 +1.7030915223785200e+01 -4.2928918370634352e+02 +5.5969024325056007e+03 -8.2566296178025461e+05 
-1.0999999999999999e+00 +4.3354989453486792e-01 -1.9595822118989711e-03 -4.0451234925144415e-02 +1.6843728665567649e+01 -4.1299337209673462e+02 +6.4203659546089466e+03 -9.0283511769803578e+05 
-1.2000000000000000e+00 +4.3354996180411848e-01 -1.9483374203504813e-03 -4.1860701625797941e-02 +1.6640271568994280e+01 -3.9549326628818318e+02 +7.3036083903181443e+03 -9.8257058705271047e+05 
-1.3000000000000000e+00 +4.3355002948665855e-01 -1.9363168956020949e-03 -4.3364622322086654e-02 +1.6420182603279326e+01 -3.7680876226289644e+02 +8.2500478342294537e+03 -1.0648968778608704e+06 
-1.4000000000000001e+00 +4.3355009703393355e-01 -1.9235205688636042e-03 -4.4954918961530463e-02 +1.6183100973293662e+01 -3.5695977324896256e+02 +9.2630990526806090e+03 -1.1498412722010685e+06 
-1.5000000000000002e+00 +4.3355016389741263e-01 -1.9099483835930031e-03 -4.6623514364107929e-02 +1.5928666498448267e+01 -3.3596623553815391e+02 +1.0346172969987443e+04 -1.2374307992724995e+06 
-1.6000000000000003e+00 +4.3355022952859962e-01 -1.8956002935762561e-03 -4.8362333658193257e-02 +1.5656519602321476e+01 -3.1384808280657819e+02 +1.1502676621822320e+04 -1.3276923466793310e+06 
-1.7000000000000004e+00 +4.3355029337904138e-01 -1.8804762619944668e-03 -5.0163305311861861e-02 +1.5366301323819322e+01 -2.9062522577858363e+02 +1.2736013008153124e+04 -1.4206527540876276e+06 
-1.8000000000000005e+00 +4.3355035490030985e-01 -1.8645762598150488e-03 -5.2018359139547617e-02 +1.5057653307408604e+01 -2.6631759079711259e+02 +1.4049581069469543e+04 -1.5163386220135393e+06 
-1.9000000000000006e+00 +4.3355041354401563e-01 -1.8479002690312708e-03 -5.3919428048865327e-02 +1.4730217939667384e+01 -2.4094508564052308e+02 +1.5446774803035260e+04 -1.6147764714966645e+06 
-2.0000000000000004e+00 +4.3355046876174425e-01 -1.8304482963743636e-03 -5.5858436037540551e-02 +1.4383638486132053e+01 -2.1452782861189132e+02 +1.6930984870946948e+04 -1.7159918261147679e+06 
-2.1000000000000005e+00 +4.3355052010103939e-01 -1.8122448123953268e-03 -5.7825040803400486e-02 +1.4018069096640637e+01 -1.8715343845815525e+02 +1.8503499082157941e+04 -1.8197176822011347e+06 
-2.2000000000000006e+00 +4.3355056751275978e-01 -1.7933806441908803e-03 -5.9806711652977969e-02 +1.3635303164974651e+01 -1.5903134152082538e+02 +2.0157395930096587e+04 -1.9252109829114811e+06 
-2.3000000000000007e+00 +4.3355061105096848e-01 -1.7739572193333304e-03 -6.1791401708045285e-02 +1.3237501596333653e+01 -1.3037495200160717e+02 +2.1883436771194523e+04 -2.0317528668551778e+06 
-2.4000000000000008e+00 +4.3355065076971044e-01 -1.7540759574243810e-03 -6.3767066023160138e-02 +1.2826825489725923e+01 -1.0139755254701895e+02 +2.3672379623357981e+04 -2.1386254830888342e+06 
-2.5000000000000009e+00 +4.3355068672295033e-01 -1.7338382553560847e-03 -6.5721654149574815e-02 +1.2405435216977500e+01 -7.2312479553095187e+01 +2.5514986701346035e+04 -2.2451108721107072e+06 
-2.6000000000000010e+00 +4.3355071896462799e-01 -1.7133454817580755e-03 -6.7643117683799825e-02 +1.1975490235848154e+01 -4.3332974810766608e+01 +2.7402025509736824e+04 -2.3504916828063847e+06 
-2.7000000000000011e+00 +4.3355074754859940e-01 -1.6926989769072292e-03 -6.9519403402537427e-02 +1.1539149061655964e+01 -1.4672306565320037e+01 +2.9324269026711929e+04 -2.4540506307581956e+06 
-2.8000000000000012e+00 +4.3355077252865876e-01 -1.6720000479088996e-03 -7.1338456752420731e-02 +1.1098569101765831e+01 +1.3456305474477716e+01 +3.1272496670816363e+04 -2.5550708788160803e+06 
-2.9000000000000012e+00 +4.3355079395853852e-01 -1.6513499636582854e-03 -7.3088222144213066e-02 +1.0655906485375777e+01 +4.0839701365541657e+01 +3.3237495300427065e+04 -2.6528361090052831e+06 
-3.0000000000000013e+00 +4.3355081189186478e-01 -1.6308499569926437e-03 -7.4756638622626922e-02 +1.0213316096954982e+01 +6.7264710289578943e+01 +3.5210059043104040e+04 -2.7466302231548456e+06 
-3.1000000000000014e+00 +4.3355082638219056e-01 -1.6106012146620073e-03 -7.6331644104779661e-02 +9.7729512594968551e+00 +9.2518236335359731e+01 +3.7180991140889484e+04 -2.8357377668129378e+06 
-3.2000000000000015e+00 +4.3355083748296541e-01 -1.5907048795787116e-03 -7.7801172150663553e-02 +9.3369637778577399e+00 +1.1638720465464415e+02 +3.9141103707072056e+04 -2.9194436978355870e+06 
-3.3000000000000016e+00 +4.3355084524752835e-01 -1.5712620456624490e-03 -7.9153152117902456e-02 +8.9075037587448147e+00 +1.3865857551294948e+02 +4.1081218792472835e+04 -2.9970334867636138e+06 
-3.4000000000000017e+00 +4.3355084972911473e-01 -1.5523737526510980e-03 -8.0375510395023053e-02 +8.4867194360311462e+00 +1.5911937349785643e+02 +4.2992169406255307e+04 -3.0677932734755287e+06 
-3.5000000000000018e+00 +4.3355085098083962e-01 -1.5341409855088224e-03 -8.1456168949158608e-02 +8.0767571298425942e+00 +1.7755666798233131e+02 +4.4864799762952440e+04 -3.1310098001819141e+06 
-3.6000000000000019e+00 +4.3355084905568925e-01 -1.5166646711068481e-03 -8.2383044599720984e-02 +7.6797611207066074e+00 +1.9375756714681600e+02 +4.6689966034403231e+04 -3.1859704082204872e+06 
-3.7000000000000020e+00 +4.3355084400651650e-01 -1.5000456731166952e-03 -8.3144049666919045e-02 +7.2978734793908648e+00 +2.0750923961386354e+02 +4.8458537338071917e+04 -3.2319631677666125e+06 
-3.8000000000000020e+00 +4.3355083588603111e-01 -1.4843847899561901e-03 -8.3727090928344614e-02 +6.9332339772492695e+00 +2.1859890243428794e+02 +5.0161396281404530e+04 -3.2682768465826656e+06 
-3.9000000000000021e+00 +4.3355082474680368e-01 -1.4697827513438957e-03 -8.4120070749590159e-02 +6.5879799672689670e+00 +2.2681384831808228e+02 +5.1789439645024067e+04 -3.2942010570896487e+06 
-4.0000000000000018e+00 +4.3355081064180084e-01 -1.4563400785419863e-03 -8.4310986115954473e-02 +6.2642472825113824e+00 +2.3194306104991870e+02 +5.3333535314188128e+04 -3.3090305804051356e+06 
-4.1000000000000014e+00 +4.3355079367136878e-01 -1.4441224466503538e-03 -8.4297872628953302e-02 +5.9637233449812452e+00 +2.3394494461417963e+02 +5.4784758661037595e+04 -3.3126784155328199e+06 
-4.2000000000000011e+00 +4.3355077401617859e-01 -1.4330818430583580e-03 -8.4091044590526506e-02 +5.6861705740775585e+00 +2.3296002379616203e+02 +5.6141017637353420e+04 -3.3055826552566979e+06 
-4.3000000000000007e+00 +4.3355075186388498e-01 -1.4231386583728244e-03 -8.3699042064092566e-02 +5.4306844122338722e+00 +2.2908081348875467e+02 +5.7403701070418057e+04 -3.2878815414272407e+06 
-4.4000000000000004e+00 +4.3355072740208073e-01 -1.4142131638431650e-03 -8.3130366116483251e-02 +5.1963557944971575e+00 +2.2239876844424697e+02 +5.8574235455679409e+04 -3.2597066083034840e+06 
-4.5000000000000000e+00 +4.3355070081833735e-01 -1.4062256665135530e-03 -8.2393503972826215e-02 +4.9822767531185672e+00 +2.1300498615213556e+02 +5.9654041153416212e+04 -3.2211874529929766e+06 
-4.5999999999999996e+00 +4.3355067230023348e-01 -1.3990965093521612e-03 -8.1496931389242189e-02 +4.7875404266026189e+00 +2.0099024333807810e+02 +6.0644532355914242e+04 -3.1724518854724634e+06 
-4.6999999999999993e+00 +4.3355064203535104e-01 -1.3927460739554514e-03 -8.0449111754490751e-02 +4.6112411512339779e+00 +1.8644497215954996e+02 +6.1547116554826083e+04 -3.1136257964207083e+06 
-4.7999999999999989e+00 +4.3355061021126873e-01 -1.3870947879714240e-03 -7.9258494039564115e-02 +4.4524746793382768e+00 +1.6945921142476777e+02 +6.2363193307528061e+04 -3.0448329007680933e+06 
-4.8999999999999986e+00 +4.3355057701557825e-01 -1.3820631231248315e-03 -7.7933514117640268e-02 +4.3103381247411034e+00 +1.5012262528153980e+02 +6.3094154577183966e+04 -2.9661948081834731e+06 
-4.9999999999999982e+00 +4.3355054263588744e-01 -1.3775716029956167e-03 -7.6482594559924774e-02 +4.1839302037424950e+00 +1.2852449302738879e+02 +6.3741383334155769e+04 -2.8778309582289215e+06 
-5.0999999999999979e+00 +4.3355050725979649e-01 -1.3735408017836097e-03 -7.4914140243481420e-02 +4.0723511992171382e+00 +1.0475361385688683e+02 +6.4306253794334851e+04 -2.7798581375100790e+06 
-5.1999999999999975e+00 +4.3355047107494549e-01 -1.3698913504527998e-03 -7.3236543952433911e-02 +3.9747031494326803e+00 +7.8898409221334290e+01 +6.4790130336115682e+04 -2.6723909528764193e+06 
-5.2999999999999972e+00 +4.3355043426897172e-01 -1.3665439386730523e-03 -7.1458180026591683e-02 +3.8900899106504898e+00 +5.1046793138250933e+01 +6.5194367154434018e+04 -2.5555411937631550e+06 
-5.3999999999999968e+00 +4.3355039702954468e-01 -1.3634193182160271e-03 -6.9587407814127270e-02 +3.8176172586714809e+00 +2.1286229358461348e+01 +6.5520307700214544e+04 -2.4294180792061854e+06 
-5.4999999999999964e+00 +4.3355035954435583e-01 -1.3604383069428549e-03 -6.7632569509250923e-02 +3.7563930136883714e+00 -1.0296316919250735e+01 +6.5769283970486824e+04 -2.2941280111005399e+06 
-5.5999999999999961e+00 +4.3355032200111859e-01 -1.3575217894088139e-03 -6.5601989581421757e-02 +3.7055270648079128e+00 -4.3614397104331410e+01 +6.5942616378129052e+04 -2.1497744678656468e+06 
-5.6999999999999957e+00 +4.3355028458757450e-01 -1.3545907231133458e-03 -6.3503974355553758e-02 +3.6641315580366198e+00 -7.8582095678221719e+01 +6.6041612686307984e+04 -1.9964579050225718e+06 
-5.7999999999999954e+00 +4.3355024749149262e-01 -1.3515661397749661e-03 -6.1346811231131136e-02 +3.6313209363210803e+00 -1.1511405264706660e+02 +6.6067567803222031e+04 -1.8342756279997646e+06 
-5.8999999999999950e+00 +4.3355021090069007e-01 -1.3483691490518491e-03 -5.9138770484194379e-02 +3.6062120563845719e+00 -1.5312543667826822e+02 +6.6021763114332833e+04 -1.6633218985797432e+06 
-5.9999999999999947e+00 +4.3355017500121790e-01 -1.3449211144960439e-03 -5.6887824469567451e-02 +3.5879137513875441e+00 -1.9253621647016479e+02 +6.5905660856703762e+04 -1.4836800626243751e+06 
-6.0999999999999943e+00 +4.3355013985133223e-01 -1.3411546980204182e-03 -5.4591644067929913e-02 +3.5753999350512107e+00 -2.3341594920141358e+02 +6.5724097507428873e+04 -1.2949862128172265e+06 
-6.1999999999999940e+00 +4.3355010521946941e-01 -1.3370890778702071e-03 -5.2247352333514276e-02 +3.5687160084049090e+00 -2.7575936208296281e+02 +6.5479525440421065e+04 -1.0975241274097783e+06 
-6.2999999999999936e+00 +4.3355007082982655e-01 -1.3327935670855726e-03 -4.9860987158870072e-02 +3.5687638823061385e+00 -3.1938449978934580e+02 +6.5169902335427250e+04 -8.9246586033745250e+05 
-6.3999999999999932e+00 +4.3355003640707523e-01 -1.3283381362751416e-03 -4.7438774864706733e-02 +3.5764626027926951e+00 -3.6410545475906713e+02 +6.4793026075367648e+04 -6.8100860427798494e+05 
-6.4999999999999929e+00 +4.3355000167583224e-01 -1.3237927124915237e-03 -4.4986949659373505e-02 +3.5927299109625359e+00 -4.0973600655196117e+02 +6.4346700712947983e+04 -4.6435154285293265e+05 
-6.5999999999999925e+00 +4.3354996636063609e-01 -1.3192271759570060e-03 -4.2511751884174567e-02 +3.6184821466103845e+00 -4.5608964540980287e+02 +6.3828736967206372e+04 -2.4369576763664625e+05 
-6.6999999999999922e+00 +4.3354993018594601e-01 -1.3147113578845617e-03 -4.0019428261479952e-02 +3.6546341888146565e+00 -5.0297956211444529e+02 +6.3236952493522185e+04 -2.0244342722397600e+04 
-6.7999999999999918e+00 +4.3354989287614337e-01 -1.3103150377897135e-03 -3.7516233079162027e-02 +3.7020993669582953e+00 -5.5021861662565675e+02 +6.2569172366283405e+04 +2.0479752048352195e+05 
-6.8999999999999915e+00 +4.3354985415552927e-01 -1.3061079447171356e-03 -3.5008428243458151e-02 +3.7617895073860121e+00 -5.9761933290049501e+02 +6.1823228716540063e+04 +4.3022242608612182e+05 
-6.9999999999999911e+00 +4.3354981374832446e-01 -1.3021597492684875e-03 -3.2502284535869438e-02 +3.8346146955935296e+00 -6.4499386253463763e+02 +6.0996962058286714e+04 +6.5482058464388084e+05 
-7.0999999999999908e+00 +4.3354977137867068e-01 -1.2985400690362200e-03 -3.0004081986289306e-02 +3.9214834348861554e+00 -6.9215397606802833e+02 +6.0088220309387412e+04 +8.7737976741415937e+05 
-7.1999999999999904e+00 +4.3354972677060621e-01 -1.2953184586803905e-03 -2.7520107933840937e-02 +4.0233023583562630e+00 -7.3891108852894490e+02 +5.9094860388941030e+04 +1.0966853933775879e+06 
-7.2999999999999901e+00 +4.3354967964809860e-01 -1.2925644133774639e-03 -2.5056661666805567e-02 +4.1409763293984003e+00 -7.8507616575561929e+02 +5.8014747575505804e+04 +1.3115200691891548e+06 
-7.3999999999999897e+00 +4.3354962973501510e-01 -1.2903473657504864e-03 -2.2620051534574033e-02 +4.2754083492274253e+00 -8.3045977194662464e+02 +5.6845755984446092e+04 +1.5206637937582259e+06 
-7.4999999999999893e+00 +4.3354957675513223e-01 -1.2887366813366667e-03 -2.0216596743710742e-02 +4.4274994297083037e+00 -8.7487202867520853e+02 +5.5585769226318742e+04 +1.7228937421727385e+06 
-7.5999999999999890e+00 +4.3354952043213973e-01 -1.2878016598746630e-03 -1.7852628879480220e-02 +4.5981486308855199e+00 -9.1812257692672915e+02 +5.4232680126411637e+04 +1.9169840607209431e+06 
-7.6999999999999886e+00 +4.3354946048961784e-01 -1.2876115300617631e-03 -1.5534489429826088e-02 +4.7882529034326149e+00 -9.6002061967930865e+02 +5.2784391584852936e+04 +2.1017060542236757e+06 
-7.7999999999999883e+00 +4.3354939665105907e-01 -1.2882354507023003e-03 -1.3268533422122267e-02 +4.9987071284215041e+00 -1.0003748441745356e+03 +5.1238816266794754e+04 +2.2758277930361563e+06 
-7.8999999999999879e+00 +4.3354932863984480e-01 -1.2897425038840699e-03 -1.1061127190230842e-02 +5.2304039162007978e+00 -1.0389934580022318e+03 +4.9593877702428988e+04 +2.4381142650026465e+06 
-7.9999999999999876e+00 +4.3354925618240980e-01 -1.2922013252988490e-03 -8.9190973345981209e-03 +5.4842294913896446e+00 -1.0756742693827891e+03 +4.7847152417878089e+04 +2.5873086517018378e+06 
-8.0999999999999872e+00 +4.3354917915760882e-01 -1.2957001098683947e-03 -6.8536517701595643e-03 +5.7612215258986330e+00 -1.1101218859724524e+03 +4.5993273165351588e+04 +2.7218860644158875e+06 
-8.1999999999999869e+00 +4.3354909783859080e-01 -1.3002902576762134e-03 -4.8675868141073077e-03 +6.0615473116175220e+00 -1.1422726523238562e+03 +4.4030653565862332e+04 +2.8415985225264356e+06 
-8.2999999999999865e+00 +4.3354901257882911e-01 -1.3059576612766120e-03 -2.9525933794481152e-03 +6.3839960064902357e+00 -1.1723057438537739e+03 +4.1966107857586889e+04 +2.9475106586604044e+06 
-8.3999999999999861e+00 +4.3354892373043669e-01 -1.3126858342529884e-03 -1.0998555091626689e-03 +6.7272754229799645e+00 -1.2004127727927328e+03 +3.9807180140439406e+04 +3.0407743403846039e+06 
-8.4999999999999858e+00 +4.3354883164552849e-01 -1.3204583137452698e-03 +6.9943442976050547e-04 +7.0900942721037028e+00 -1.2267852655723002e+03 +3.7561410633726126e+04 +3.1225414527912075e+06 
-8.5999999999999854e+00 +4.3354873667618432e-01 -1.3292586623172486e-03 +2.4540800792920742e-03 +7.4711622292946851e+00 -1.2516147467618696e+03 +3.5236335337028686e+04 +3.1939643075251477e+06 
-8.6999999999999851e+00 +4.3354863917449510e-01 -1.3390704690126876e-03 +4.1728755055326621e-03 +7.8691899716286402e+00 -1.2750926388649175e+03 +3.2839485869884367e+04 +3.2561951919110599e+06 
-8.7999999999999847e+00 +4.3354853949252387e-01 -1.3498773498956994e-03 +5.8646098626799472e-03 +8.2828891970115670e+00 -1.2974103527768132e+03 +3.0378389427581304e+04 +3.3103868089506049e+06 
-8.8999999999999844e+00 +4.3354843798232579e-01 -1.3616629501322364e-03 +7.5380643272579904e-03 +8.7109726931037503e+00 -1.3187592311941148e+03 +2.7860568431220807e+04 +3.3576920219969363e+06 
-8.9999999999999840e+00 +4.3354833499595241e-01 -1.3744109452835220e-03 +9.2020119281724742e-03 +9.1521543786890867e+00 -1.3393305510080725e+03 +2.5293540357635567e+04 +3.3992638881107164e+06 
-9.0999999999999837e+00 +4.3354823088543276e-01 -1.3881050404955652e-03 +1.0865219728279621e-02 +9.6051492905353832e+00 -1.3593155678671155e+03 +2.2684817856398651e+04 +3.4362558849780941e+06 
-9.1999999999999833e+00 +4.3354812600280579e-01 -1.4027289735254788e-03 +1.2536444315422031e-02 +1.0068673672336390e+01 -1.3789054318242502e+03 +2.0041908310558912e+04 +3.4698215222373661e+06 
-9.2999999999999829e+00 +4.3354802070009185e-01 -1.4182665158889666e-03 +1.4224435468001685e-02 +1.0541445019954594e+01 -1.3982912622270196e+03 +1.7372313617895696e+04 +3.5011147180477292e+06 
-9.3999999999999826e+00 +4.3354791532931247e-01 -1.4347014733028015e-03 +1.5937933592942589e-02 +1.1022182094477854e+01 -1.4176641002821116e+03 +1.4683530189134563e+04 +3.5312895834661797e+06 
-9.4999999999999822e+00 +4.3354781024247407e-01 -1.4520176874229635e-03 +1.7685671430426091e-02 +1.1509604984552787e+01 -1.4372149465430705e+03 +1.1983048632764087e+04 +3.5615006230419641e+06 
-9.5999999999999819e+00 +4.3354770579160029e-01 -1.4701990356623940e-03 +1.9476369994223652e-02 +1.2002435101640309e+01 -1.4571346859278715e+03 +9.2783538530075057e+03 +3.5929023921886659e+06 
-9.6999999999999815e+00 +4.3354760232869111e-01 -1.4892294339383268e-03 +2.1318743502301538e-02 +1.2499395274696770e+01 -1.4776141834326925e+03 +6.5769245413738208e+03 +3.6266499612415098e+06 
-9.7999999999999812e+00 +4.3354750020575999e-01 -1.5090928378421922e-03 +2.3221494726689745e-02 +1.2999209779955262e+01 -1.4988442021539220e+03 +3.8862330917856925e+03 +3.6638985546093755e+06 
-9.8999999999999808e+00 +4.3354739977480772e-01 -1.5297732428091041e-03 +2.5193317759016273e-02 +1.3500604358259018e+01 -1.5210154540483863e+03 +1.2137455423260087e+03 +3.7058037906850469e+06 
-9.9999999999999805e+00 +4.3354730138617026e-01 -1.5512556182412888e-03 +2.7243044096298762e-02 +1.4002409315340396e+01 -1.5443338541188982e+03 -1.4331672550466210e+03 +3.7535738380964040e+06 
-1.0099999999999980e+01 +4.3354720532517077e-01 -1.5734633162940539e-03 +2.9368539342461121e-02 +1.4503370529170079e+01 -1.5689130138902065e+03 -4.0472870382150104e+03 +3.8081400245912606e+06 
