# multipoles
# s[mm] polynom_b[n=0][T/m^n] polynom_b[n=1][T/m^n] polynom_b[n=2][T/m^n] polynom_b[n=3][T/m^n] polynom_b[n=4][T/m^n] polynom_b[n=5][T/m^n] polynom_b[n=6][T/m^n] 
+0.0000000000000000e+00 -4.7664405820760081e-01 +4.0196300355832933e-04 -9.1089539793180824e-02 +2.4414800800429241e+01 +2.3009641346871140e+03 -1.3367075335897596e+05 -6.4442287654823503e+06 
-1.0000000000000001e-01 -4.7664403215392409e-01 +4.0662722801558613e-04 -9.3051146870751958e-02 +2.4243118269581906e+01 +2.3100540448399288e+03 -1.3305820655429774e+05 -6.4241390467037149e+06 
-2.0000000000000001e-01 -4.7664400356942249e-01 +4.1369728901189258e-04 -9.5254623800242036e-02 +2.4034274338992322e+01 +2.3236067094234932e+03 -1.3229936926913459e+05 -6.4243659318965003e+06 
-3.0000000000000004e-01 -4.7664397292601701e-01 +4.2301541123251744e-04 -9.7656224317356322e-02 +2.3791091166137591e+01 +2.3409563201738488e+03 -1.3140555980120215e+05 -6.4422564977068771e+06 
-4.0000000000000002e-01 -4.7664394069575644e-01 +4.3442382166715925e-04 -1.0021219579264501e-01 +2.3516390775778635e+01 +2.3614370165374544e+03 -1.3038809544874696e+05 -6.4751577499205517e+06 
-5.0000000000000000e-01 -4.7664390735076528e-01 +4.4776474846109959e-04 -1.0287878451371354e-01 +2.3212995082112162e+01 +2.3843829757652743e+03 -1.2925829253106996e+05 -6.5204170218825238e+06 
-5.9999999999999998e-01 -4.7664387336327035e-01 +4.6288040913174068e-04 -1.0561223100616962e-01 +2.2883726205686045e+01 +2.4091283086958965e+03 -1.2802746808426450e+05 -6.5753814360320084e+06 
-6.9999999999999996e-01 -4.7664383920557707e-01 +4.7961300938608489e-04 -1.0836877210868692e-01 +2.2531406489118250e+01 +2.4350070926112180e+03 -1.2670693982795319e+05 -6.6373980415569907e+06 
-7.9999999999999993e-01 -4.7664380535003720e-01 +4.9780473592131924e-04 -1.1110464376446576e-01 +2.2158858686246187e+01 +2.4613534085295646e+03 -1.2530802713162564e+05 -6.7038139439256908e+06 
-8.9999999999999991e-01 -4.7664377226905746e-01 +5.1729775251105770e-04 -1.1377607857239434e-01 +2.1768906056371694e+01 +2.4875012846134450e+03 -1.2384205143556597e+05 -6.7719760104653053e+06 
-9.9999999999999989e-01 -4.7664374043507457e-01 +5.3793419239639331e-04 -1.1633930822158937e-01 +2.1364372565920071e+01 +2.5127847322313678e+03 -1.2232033729448410e+05 -6.8392310088471221e+06 
-1.0999999999999999e+00 -4.7664371032054448e-01 +5.5955615275748993e-04 -1.1875056298360835e-01 +2.0948083033857667e+01 +2.5365377210785368e+03 -1.2075421310207150e+05 -6.9029254483481934e+06 
-1.2000000000000000e+00 -4.7664368239793742e-01 +5.8200569041190128e-04 -1.2096607178154477e-01 +2.0522863225107351e+01 +2.5580941725238504e+03 -1.1915501147352334e+05 -6.9604055237742793e+06 
-1.3000000000000000e+00 -4.7664365713971740e-01 +6.0512481732581810e-04 -1.2294206343459857e-01 +2.0091539974519709e+01 +2.5767879707306361e+03 -1.1753406987653462e+05 -7.0090171320379693e+06 
-1.4000000000000001e+00 -4.7664363501831736e-01 +6.2875549163988347e-04 -1.2463476821414680e-01 +1.9656941418488124e+01 +2.5919529779048662e+03 -1.1590273181676226e+05 -7.0461059040231174e+06 
-1.5000000000000002e+00 -4.7664361650616399e-01 +6.5273961469059524e-04 -1.2600041405559681e-01 +1.9221897066263757e+01 +2.6029229541645045e+03 -1.1427234713709382e+05 -7.0690168015500810e+06 
-1.6000000000000003e+00 -4.7664360207560769e-01 +6.7691902453655985e-04 -1.2699523416209327e-01 +1.8789237968404898e+01 +2.6090316903663088e+03 -1.1265427286973331e+05 -7.0750947116000503e+06 
-1.7000000000000004e+00 -4.7664359219897051e-01 +7.0113549114448161e-04 -1.2757545940897266e-01 +1.8361796835949466e+01 +2.6096128487157025e+03 -1.1105987379173696e+05 -7.0616836501282007e+06 
-1.8000000000000005e+00 -4.7664358734848561e-01 +7.2523070959390392e-04 -1.2769732500564174e-01 +1.7942408217849081e+01 +2.6040000808855998e+03 -1.0950052333251202e+05 -7.0261272960618408e+06 
-1.9000000000000006e+00 -4.7664358799630085e-01 +7.4904629616668727e-04 -1.2731706901030890e-01 +1.7533908594329432e+01 +2.5915269871136388e+03 -1.0798760398115953e+05 -6.9657687608516933e+06 
-2.0000000000000004e+00 -4.7664359461450828e-01 +7.7242380962640579e-04 -1.2639092456326978e-01 +1.7139135137802526e+01 +2.5715268600206928e+03 -1.0653249913562143e+05 -6.8779490851137545e+06 
-2.1000000000000005e+00 -4.7664360750930551e-01 +7.9522035811161742e-04 -1.2488893631375667e-01 +1.6760435547417131e+01 +2.5435200398425259e+03 -1.0514400765803497e+05 -6.7606865343272891e+06 
-2.2000000000000006e+00 -4.7664362629702473e-01 +8.1736658249293250e-04 -1.2284395538569443e-01 +1.6398587497944359e+01 +2.5079474294349943e+03 -1.0382485050450302e+05 -6.6155213373258309e+06 
-2.3000000000000007e+00 -4.7664365041190321e-01 +8.3881671444147629e-04 -1.2030706137848886e-01 +1.6054019581550492e+01 +2.4655279712903844e+03 -1.0257717321350139e+05 -6.4450664959816542e+06 
-2.4000000000000008e+00 -4.7664367928803242e-01 +8.5952502292131468e-04 -1.1732935090511717e-01 +1.5727160254475296e+01 +2.4169808232946962e+03 -1.0140312689490085e+05 -6.2519353700740794e+06 
-2.5000000000000009e+00 -4.7664371235942193e-01 +8.7944581213158439e-04 -1.1396192526551253e-01 +1.5418437018618141e+01 +2.3630251954530208e+03 -1.0030485795398362e+05 -6.0387414762651026e+06 
-2.6000000000000010e+00 -4.7664374905996876e-01 +8.9853342690315191e-04 -1.1025589390022557e-01 +1.5128276288334407e+01 +2.3043804143061188e+03 -9.9284507509195144e+04 -5.8080987922683004e+06 
-2.7000000000000011e+00 -4.7664378882346886e-01 +9.1674226335155087e-04 -1.0626237261129801e-01 +1.4857103117132972e+01 +2.2417658906919501e+03 -9.8344210040219376e+04 -5.5626216123141330e+06 
-2.8000000000000012e+00 -4.7664383108360309e-01 +9.3402677607762623e-04 -1.0203248537155737e-01 +1.4605341013162791e+01 +2.1759011572024924e+03 -9.7486092514960954e+04 -5.3049247355301576e+06 
-2.9000000000000012e+00 -4.7664387527392299e-01 +9.5034148403185231e-04 -9.7617365269877118e-02 +1.4373411795779422e+01 +2.1075058835436962e+03 -9.6712273756577080e+04 -5.0376235351555562e+06 
-3.0000000000000013e+00 -4.7664392082786078e-01 +9.6564097995921569e-04 -9.3068153296194014e-02 +1.4161735358943623e+01 +2.0372998557733956e+03 -9.6024863309913926e+04 -4.7633338690256951e+06 
-3.1000000000000014e+00 -4.7664396717870705e-01 +9.7987993925135151e-04 -8.8436000815820190e-02 +1.3970729433643005e+01 +1.9660030267335840e+03 -9.5425960244896545e+04 -4.4846723328664284e+06 
-3.2000000000000015e+00 -4.7664401375961590e-01 +9.9301312631431085e-04 -8.3772068501324626e-02 +1.3800809437712443e+01 +1.8943354922145315e+03 -9.4917652511172913e+04 -4.2042561380810104e+06 
-3.3000000000000016e+00 -4.7664406000358345e-01 +1.0049954028411819e-03 -7.9127528726306531e-02 +1.3652388261186390e+01 +1.8230175410485524e+03 -9.4502015891996431e+04 -3.9247033671455421e+06 
-3.4000000000000017e+00 -4.7664410534346335e-01 +1.0157817358712707e-03 -7.4553563635451417e-02 +1.3525876062972797e+01 +1.7527696187029285e+03 -9.4181113041267919e+04 -3.6486328035736945e+06 
-3.5000000000000018e+00 -4.7664414921193587e-01 +1.0253272053481705e-03 -7.0101368114032364e-02 +1.3421680080762929e+01 +1.6843123823565331e+03 -9.3956992586992346e+04 -3.3786641934686936e+06 
-3.6000000000000019e+00 -4.7664419104151828e-01 +1.0335870120331625e-03 -6.5822148779047893e-02 +1.3340204429721776e+01 +1.6183666855897679e+03 -9.3831688177604301e+04 -3.1174181852717097e+06 
-3.7000000000000020e+00 -4.7664423026454639e-01 +1.0405164869707506e-03 -6.1767125707280879e-02 +1.3281849853246792e+01 +1.5556536114282330e+03 -9.3807217232737225e+04 -2.8675164915475477e+06 
-3.8000000000000020e+00 -4.7664426631318968e-01 +1.0460710967313169e-03 -5.7987530183462879e-02 +1.3247013605424510e+01 +1.4968944294878595e+03 -9.3885580485813756e+04 -2.6315816882424490e+06 
-3.9000000000000021e+00 -4.7664429861940982e-01 +1.0502064526971050e-03 -5.4534609814891721e-02 +1.3236089206909956e+01 +1.4428106955321873e+03 -9.4068760770032444e+04 -2.4122376953607863e+06 
-4.0000000000000018e+00 -4.7664432661490047e-01 +1.0528782110308635e-03 -5.1459635961513997e-02 +1.3249475191487011e+01 +1.3941251738416991e+03 -9.4358777622321315e+04 -2.2121158229636261e+06 
-4.1000000000000014e+00 -4.7664434980210446e-01 +1.0540641052148240e-03 -4.8803499780014269e-02 +1.3287480335056994e+01 +1.3514278530008437e+03 -9.4757957812931942e+04 -2.0333981404124454e+06 
-4.2000000000000011e+00 -4.7664436802243787e-01 +1.0538012753707685e-03 -4.6566086184636583e-02 +1.3349265012067796e+01 +1.3147207238178617e+03 -9.5261864171754438e+04 -1.8761167538033603e+06 
-4.3000000000000007e+00 -4.7664438122421748e-01 +1.0521354356076106e-03 -4.4735252253440660e-02 +1.3433486499248817e+01 +1.2838385448694239e+03 -9.5861692412956196e+04 -1.7397726030818771e+06 
-4.4000000000000004e+00 -4.7664438935594022e-01 +1.0491124345136523e-03 -4.3298826719500610e-02 +1.3538790555164528e+01 +1.2586162931762497e+03 -9.6548524302526173e+04 -1.6238727964935077e+06 
-4.5000000000000000e+00 -4.7664439236617490e-01 +1.0447781257262028e-03 -4.2244622251095737e-02 +1.3663822715691792e+01 +1.2388885889838541e+03 -9.7313439309436188e+04 -1.5279227017103601e+06 
-4.5999999999999996e+00 -4.7664439020356109e-01 +1.0391783694547034e-03 -4.1560436002165767e-02 +1.3807228237907161e+01 +1.2244897098973042e+03 -9.8147514164512526e+04 -1.4514260273415642e+06 
-4.6999999999999993e+00 -4.7664438281680171e-01 +1.0323590293533262e-03 -4.1234050320586649e-02 +1.3967652182633252e+01 +1.2152535998247533e+03 -9.9041823235542790e+04 -1.3938848559848133e+06 
-4.7999999999999989e+00 -4.7664437015468397e-01 +1.0243659684387064e-03 -4.1253229899526206e-02 +1.4143739528857271e+01 +1.2110138157827294e+03 -9.9987439092715766e+04 -1.3547994004826196e+06 
-4.8999999999999986e+00 -4.7664435216608630e-01 +1.0152450499543468e-03 -4.1605721172360090e-02 +1.4334135132887642e+01 +1.2116035163708752e+03 -1.0097543214888024e+05 -1.3336679531186572e+06 
-4.9999999999999982e+00 -4.7664432879998436e-01 +1.0050421357568659e-03 -4.2279251234462772e-02 +1.4537483771308469e+01 +1.2168554388512712e+03 -1.0199687081804041e+05 -1.3299867745178514e+06 
-5.0999999999999979e+00 -4.7664430000545810e-01 +9.9380307905364397e-04 -4.3261526939337422e-02 +1.4752430342206280e+01 +1.2266018817353199e+03 -1.0304282256192346e+05 -1.3432500153308383e+06 
-5.1999999999999975e+00 -4.7664426573170576e-01 +9.8157373097610941e-04 -4.4540233218282099e-02 +1.4977619666240635e+01 +1.2406746730309801e+03 -1.0410435264731261e+05 -1.3729495701276828e+06 
-5.2999999999999972e+00 -4.7664422592804839e-01 +9.6839993058532060e-04 -4.6103032422748956e-02 +1.5211696769822092e+01 +1.2589051567725410e+03 -1.0517252567195767e+05 -1.4185750159531559e+06 
-5.3999999999999968e+00 -4.7664418054393159e-01 +9.5432750905358112e-04 -4.7937563920303218e-02 +1.5453306752230732e+01 +1.2811241832401079e+03 -1.0623840469095105e+05 -1.4796135635197151e+06 
-5.4999999999999964e+00 -4.7664412952894347e-01 +9.3940228400838711e-04 -5.0031441944919597e-02 +1.5701094942185200e+01 +1.3071620698202444e+03 -1.0729305201377833e+05 -1.5555498824785321e+06 
-5.5999999999999961e+00 -4.7664407283282578e-01 +9.2367005803996023e-04 -5.2372254006440591e-02 +1.5953706935345483e+01 +1.3368485671183662e+03 -1.0832752932530749e+05 -1.6458659339208633e+06 
-5.6999999999999957e+00 -4.7664401040546261e-01 +9.0717661958427862e-04 -5.4947562298906613e-02 +1.6209788561297255e+01 +1.3700128866904442e+03 -1.0933289739629591e+05 -1.7500411090798655e+06 
-5.7999999999999954e+00 -4.7664394219691886e-01 +8.8996773604367542e-04 -5.7744898867636722e-02 +1.6467986068761537e+01 +1.4064836091993407e+03 -1.1030021702433089e+05 -1.8675517994481761e+06 
-5.8999999999999950e+00 -4.7664386815740917e-01 +8.7208915700201495e-04 -6.0751769397412919e-02 +1.6726946029563059e+01 +1.4460887535171792e+03 -1.1122054840054223e+05 -1.9978717194203059e+06 
-5.9999999999999947e+00 -4.7664378823852088e-01 +8.5358665802746578e-04 -6.3955477981206169e-02 +1.6985323840733042e+01 +1.4886531224849230e+03 -1.1208509863738573e+05 -2.1404683464439837e+06 
-6.0999999999999943e+00 -4.7664370251357352e-01 +8.3450649028043999e-04 -6.7336580179856567e-02 +1.7241960074206578e+01 +1.5339081639045842e+03 -1.1288754992247172e+05 -2.2945258446113048e+06 
-6.1999999999999940e+00 -4.7664361138915939e-01 +8.1494459647052180e-04 -7.0874537614488545e-02 +1.7495570363318116e+01 +1.5816058439425610e+03 -1.1362475756458477e+05 -2.4593182274322459e+06 
-6.2999999999999936e+00 -4.7664351532689714e-01 +7.9502679153093455e-04 -7.4555998487755321e-02 +1.7744993892348987e+01 +1.6315876787065927e+03 -1.1429702959098430e+05 -2.6342938578650528e+06 
-6.3999999999999932e+00 -4.7664341478818095e-01 +7.7487839604891101e-04 -7.8367692876936873e-02 +1.7989117408090596e+01 +1.6836931748241509e+03 -1.1490507380656856e+05 -2.8188753722396758e+06 
-6.4999999999999929e+00 -4.7664331023461642e-01 +7.5462466477119194e-04 -8.2296356578631949e-02 +1.8226829401360312e+01 +1.7377621926377244e+03 -1.1544960803635938e+05 -3.0124875203161542e+06 
-6.5999999999999925e+00 -4.7664320212799338e-01 +7.3439078479897247e-04 -8.6328735774783227e-02 +1.8457020149965015e+01 +1.7936350433786113e+03 -1.1593136037328521e+05 -3.2145576366266990e+06 
-6.6999999999999922e+00 -4.7664309093033858e-01 +7.1430187095902764e-04 -9.0451581889761476e-02 +1.8678581845401297e+01 +1.8511524016492660e+03 -1.1635106990831293e+05 -3.4245152430807971e+06 
-6.7999999999999918e+00 -4.7664297710390230e-01 +6.9448296537130509e-04 -9.4651654931623724e-02 +1.8890408601483706e+01 +1.9101553834660187e+03 -1.1670948680131172e+05 -3.6417924481212241e+06 
-6.8999999999999915e+00 -4.7664286111116283e-01 +6.7505902994718318e-04 -9.8915724014792844e-02 +1.9091396659114547e+01 +1.9704855624272079e+03 -1.1700737344622280e+05 -3.8658240275168945e+06 
-6.9999999999999911e+00 -4.7664274341483226e-01 +6.5615494774628092e-04 -1.0323056849044474e-01 +1.9280444341224221e+01 +2.0319850049503784e+03 -1.1724550422359513e+05 -4.0960476185632925e+06 
-7.0999999999999908e+00 -4.7664262447788353e-01 +6.3789551734802854e-04 -1.0758297528344467e-01 +1.9456452213131243e+01 +2.0944962267659744e+03 -1.1742466643829644e+05 -4.3319035230955305e+06 
-7.1999999999999904e+00 -4.7664250476352532e-01 +6.2040545098820390e-04 -1.1195974425710900e-01 +1.9618323117500367e+01 +2.1578623093017654e+03 -1.1754566049940312e+05 -4.5728352850363497e+06 
-7.2999999999999901e+00 -4.7664238473524229e-01 +6.0380937011753489e-04 -1.1634768410469254e-01 +1.9764962307068117e+01 +2.2219268298264401e+03 -1.1760930071409699e+05 -4.8182893719976079e+06 
-7.3999999999999897e+00 -4.7664226485678590e-01 +5.8823180346034951e-04 -1.2073361490533514e-01 +1.9895277487391393e+01 +2.2865339199554460e+03 -1.1761641552552283e+05 -5.0677154682337437e+06 
-7.4999999999999893e+00 -4.7664214559217810e-01 +5.7379718273512729e-04 -1.2510436948414824e-01 +2.0008178927207279e+01 +2.3515283051006800e+03 -1.1756784813430016e+05 -5.3205666867902391e+06 
-7.5999999999999890e+00 -4.7664202740572764e-01 +5.6062984111984824e-04 -1.2944679221152752e-01 +2.0102579504685906e+01 +2.4167552878233359e+03 -1.1746445679343923e+05 -5.5762994969380898e+06 
-7.6999999999999886e+00 -4.7664191076203399e-01 +5.4885400841655997e-04 -1.3374774054191885e-01 +2.0177394832152988e+01 +2.4820607924834731e+03 -1.1730711550921969e+05 -5.8343739657491036e+06 
-7.7999999999999883e+00 -4.7664179612599966e-01 +5.3859381038650277e-04 -1.3799408429685625e-01 +2.0231543269352176e+01 +2.5472913571534227e+03 -1.1709671412772684e+05 -6.0942537240567366e+06 
-7.8999999999999879e+00 -4.7664168396282741e-01 +5.2997326148805461e-04 -1.4217270795101042e-01 +2.0263946121700780e+01 +2.6122941919981822e+03 -1.1683415946013795e+05 -6.3554062724514203e+06 
-7.9999999999999876e+00 -4.7664157473572316e-01 +5.2311627599207632e-04 -1.4627089627655449e-01 +2.0273485467334087e+01 +2.6769207711707945e+03 -1.1651986816745850e+05 -6.6172927139684269e+06 
-8.0999999999999872e+00 -4.7664146881993136e-01 +5.1811540600158617e-04 -1.5028597272888561e-01 +2.0259288873536843e+01 +2.7411658792374192e+03 -1.1615315070935787e+05 -6.8798193002215093e+06 
-8.1999999999999869e+00 -4.7664136634693394e-01 +5.1490052955580133e-04 -1.5420903261250965e-01 +2.0222818292708283e+01 +2.8048801678266773e+03 -1.1574081408029917e+05 -7.1422599470165092e+06 
-8.2999999999999865e+00 -4.7664126741290241e-01 +5.1332151372026941e-04 -1.5801329285184693e-01 +2.0165996787186970e+01 +2.8676650948491447e+03 -1.1528760983820415e+05 -7.4031288383276891e+06 
-8.3999999999999861e+00 -4.7664117211555140e-01 +5.1322877662462844e-04 -1.6167156001155358e-01 +2.0090622660894699e+01 +2.9291259591656253e+03 -1.1479720684066908e+05 -7.6610067101903353e+06 
-8.4999999999999858e+00 -4.7664108055220628e-01 +5.1447256361442464e-04 -1.6515665448218042e-01 +1.9998498873437253e+01 +2.9888680991210995e+03 -1.1427329727241775e+05 -7.9144742220993731e+06 
-8.5999999999999854e+00 -4.7664099281982658e-01 +5.1690293977358346e-04 -1.6844140577411498e-01 +1.9891433247129910e+01 +3.0464967942415219e+03 -1.1371959773286528e+05 -8.1621114813879821e+06 
-8.6999999999999851e+00 -4.7664090901493544e-01 +5.2036978877910769e-04 -1.7149866030678881e-01 +1.9771238501829352e+01 +3.1016174044427794e+03 -1.1313984936661023e+05 -8.4024986887024622e+06 
-8.7999999999999847e+00 -4.7664082923368023e-01 +5.2472280601811969e-04 -1.7430127261478903e-01 +1.9639732442837751e+01 +3.1538351952391040e+03 -1.1253781883385190e+05 -8.6342153021209240e+06 
-8.8999999999999844e+00 -4.7664075357173935e-01 +5.2981149567832666e-04 -1.7682211523677410e-01 +1.9498738045675182e+01 +3.2027555133000656e+03 -1.1191729872709911e+05 -8.8558408455979619e+06 
-8.9999999999999840e+00 -4.7664068212436189e-01 +5.3548516544378339e-04 -1.7903407270056856e-01 +1.9350083594898777e+01 +3.2479836648550004e+03 -1.1128210825072450e+05 -9.0659543256157339e+06 
-9.0999999999999837e+00 -4.7664061498633947e-01 +5.4159292230533283e-04 -1.8091004379865575e-01 +1.9195602807025459e+01 +3.2891249517880874e+03 -1.1063609385644250e+05 -9.2631343949606773e+06 
-9.1999999999999833e+00 -4.7664055225199115e-01 +5.4798366803338701e-04 -1.8242294213755753e-01 +1.9037134957186048e+01 +3.3257846698911726e+03 -1.0998312988314166e+05 -9.4459593210571539e+06 
-9.2999999999999829e+00 -4.7664049401513175e-01 +5.5450609555287851e-04 -1.8354569842985702e-01 +1.8876524975234226e+01 +3.3575681446892650e+03 -1.0932711901093669e+05 -9.6130071486670990e+06 
-9.3999999999999826e+00 -4.7664044036909509e-01 +5.6100868304096634e-04 -1.8425125669469491e-01 +1.8715623614532465e+01 +3.3840806498272636e+03 -1.0867199314628287e+05 -9.7628552976260465e+06 
-9.4999999999999822e+00 -4.7664039140669900e-01 +5.6733969017225662e-04 -1.8451257706569357e-01 +1.8556287552823420e+01 +3.4049274521186717e+03 -1.0802171390851086e+05 -9.8940807665610034e+06 
-9.5999999999999819e+00 -4.7664034722021759e-01 +5.7334715480411461e-04 -1.8430263804353739e-01 +1.8400379486887779e+01 +3.4197138445652740e+03 -1.0738027309135272e+05 -1.0005260272959385e+07 
-9.6999999999999815e+00 -4.7664030790138923e-01 +5.7887888561952987e-04 -1.8359443385523924e-01 +1.8249768342275047e+01 +3.4280450852426302e+03 -1.0675169378580640e+05 -1.0094969947077662e+07 
-9.7999999999999812e+00 -4.7664027354139704e-01 +5.8378246203600172e-04 -1.8236097623152644e-01 +1.8106329264584186e+01 +3.4295264262397204e+03 -1.0614003022059862e+05 -1.0161785465890486e+07 
-9.8999999999999808e+00 -4.7664024423084683e-01 +5.8790522645413117e-04 -1.8057529493152871e-01 +1.7971943844891335e+01 +3.4237631083581082e+03 -1.0554936897190618e+05 -1.0204281998030491e+07 
-9.9999999999999805e+00 -4.7664022005537754e-01 +5.9109437385269220e-04 -1.7821097507658271e-01 +1.7848469348440585e+01 +3.4103673221106405e+03 -1.0498355165815650e+05 -1.0221053739671461e+07 
-1.0099999999999980e+01 -4.7664020092989751e-01 +5.9322925414016022e-04 -1.7525206889422856e-01 +1.7736800925764207e+01 +3.3890815236515677e+03 -1.0444077904631381e+05 -1.0211136982336720e+07 
