# trajectory
# s[mm] rx[mm] ry[mm] rz[mm] px[rad] py[rad] pz[rad]
0.0000000000000000e+00 +4.6467000000000001e+00 +0.0000000000000000e+00 +0.0000000000000000e+00 +0.0000000000000000e+00 +0.0000000000000000e+00 +1.0000000000000000e+00
-1.0000000000000001e-01 +4.6466958834126686e+00 +0.0000000000000000e+00 -9.9999999887024710e-02 +8.2331747106410694e-05 +0.0000000000000000e+00 +9.9999999661074168e-01
-2.0000000000000001e-01 +4.6466835336505072e+00 +0.0000000000000000e+00 -1.9999999909619776e-01 +1.6466349635828827e-04 +0.0000000000000000e+00 +9.9999998644296639e-01
-3.0000000000000004e-01 +4.6466629507133730e+00 +0.0000000000000000e+00 -2.9999999694966739e-01 +2.4699524633225745e-04 +0.0000000000000000e+00 +9.9999996949667369e-01
-4.0000000000000002e-01 +4.6466341346012614e+00 +0.0000000000000000e+00 -3.9999999276958187e-01 +3.2932699569940922e-04 +0.0000000000000000e+00 +9.9999994577186346e-01
-5.0000000000000000e-01 +4.6465970853142951e+00 +0.0000000000000000e+00 -4.9999998587808947e-01 +4.1165874322529719e-04 +0.0000000000000000e+00 +9.9999991526853593e-01
-5.9999999999999998e-01 +4.6465518028527155e+00 +0.0000000000000000e+00 -5.9999997559733842e-01 +4.9399048776993667e-04 +0.0000000000000000e+00 +9.9999987798669154e-01
-6.9999999999999996e-01 +4.6464982872168754e+00 +0.0000000000000000e+00 -6.9999996124947717e-01 +5.7632222828780618e-04 +0.0000000000000000e+00 +9.9999983392633074e-01
-7.9999999999999993e-01 +4.6464365384072241e+00 +0.0000000000000000e+00 -7.9999994215665404e-01 +6.5865396382785188e-04 +0.0000000000000000e+00 +9.9999978308745441e-01
-8.9999999999999991e-01 +4.6463665564243044e+00 +0.0000000000000000e+00 -8.9999991764101750e-01 +7.4098569353349430e-04 +0.0000000000000000e+00 +9.9999972547006333e-01
-9.9999999999999989e-01 +4.6462883412687379e+00 +0.0000000000000000e+00 -9.9999988702471621e-01 +8.2331741664263809e-04 +0.0000000000000000e+00 +9.9999966107415827e-01
-1.0999999999999999e+00 +4.6462018929412183e+00 +0.0000000000000000e+00 -1.0999998496298988e+00 +9.0564913248768393e-04 +0.0000000000000000e+00 +9.9999958989974036e-01
-1.2000000000000000e+00 +4.6461072114425015e+00 +0.0000000000000000e+00 -1.1999998047787139e+00 +9.8798084049554324e-04 +0.0000000000000000e+00 +9.9999951194681036e-01
-1.3000000000000000e+00 +4.6460042967733965e+00 +0.0000000000000000e+00 -1.2999997517933104e+00 +1.0703125401876556e-03 +0.0000000000000000e+00 +9.9999942721536916e-01
-1.4000000000000001e+00 +4.6458931489347544e+00 +0.0000000000000000e+00 -1.3999996899958373e+00 +1.1526442311800089e-03 +0.0000000000000000e+00 +9.9999933570541755e-01
-1.5000000000000002e+00 +4.6457737679274604e+00 +0.0000000000000000e+00 -1.4999996187084437e+00 +1.2349759131831618e-03 +0.0000000000000000e+00 +9.9999923741695618e-01
-1.6000000000000003e+00 +4.6456461537524243e+00 +0.0000000000000000e+00 -1.5999995372532783e+00 +1.3173075860022693e-03 +0.0000000000000000e+00 +9.9999913234998550e-01
-1.7000000000000004e+00 +4.6455103064105696e+00 +0.0000000000000000e+00 -1.6999994449524904e+00 +1.3996392495371098e-03 +0.0000000000000000e+00 +9.9999902050450584e-01
-1.8000000000000005e+00 +4.6453662259028263e+00 +0.0000000000000000e+00 -1.7999993411282291e+00 +1.4819709037821164e-03 +0.0000000000000000e+00 +9.9999890188051721e-01
-1.9000000000000006e+00 +4.6452139122301199e+00 +0.0000000000000000e+00 -1.8999992251026434e+00 +1.5643025488264099e-03 +0.0000000000000000e+00 +9.9999877647801938e-01
-2.0000000000000004e+00 +4.6450533653933617e+00 +0.0000000000000000e+00 -1.9999990961978826e+00 +1.6466341848538340e-03 +0.0000000000000000e+00 +9.9999864429701169e-01
-2.1000000000000005e+00 +4.6448845853934406e+00 +0.0000000000000000e+00 -2.0999989537360957e+00 +1.7289658121354651e-03 +0.0000000000000000e+00 +9.9999850533749324e-01
-2.2000000000000006e+00 +4.6447075722312166e+00 +0.0000000000000000e+00 -2.1999987970394312e+00 +1.8112974309468252e-03 +0.0000000000000000e+00 +9.9999835959946293e-01
-2.3000000000000007e+00 +4.6445223259075270e+00 +0.0000000000000000e+00 -2.2999986254300380e+00 +1.8936290414850567e-03 +0.0000000000000000e+00 +9.9999820708291942e-01
-2.4000000000000008e+00 +4.6443288464231918e+00 +0.0000000000000000e+00 -2.3999984382300648e+00 +1.9759606438613650e-03 +0.0000000000000000e+00 +9.9999804778786150e-01
-2.5000000000000009e+00 +4.6441271337790253e+00 +0.0000000000000000e+00 -2.4999982347616601e+00 +2.0582922381009844e-03 +0.0000000000000000e+00 +9.9999788171428783e-01
-2.6000000000000010e+00 +4.6439171879758447e+00 +0.0000000000000000e+00 -2.5999980143469719e+00 +2.1406238241431395e-03 +0.0000000000000000e+00 +9.9999770886219719e-01
-2.7000000000000011e+00 +4.6436990090144752e+00 +0.0000000000000000e+00 -2.6999977763081486e+00 +2.2229554018409988e-03 +0.0000000000000000e+00 +9.9999752923158847e-01
-2.8000000000000012e+00 +4.6434725968957622e+00 +0.0000000000000000e+00 -2.7999975199673388e+00 +2.3052869709616259e-03 +0.0000000000000000e+00 +9.9999734282246056e-01
-2.9000000000000012e+00 +4.6432379516205788e+00 +0.0000000000000000e+00 -2.8999972446466900e+00 +2.3876185311859244e-03 +0.0000000000000000e+00 +9.9999714963481257e-01
-3.0000000000000013e+00 +4.6429950731898346e+00 +0.0000000000000000e+00 -2.9999969496683505e+00 +2.4699500821085763e-03 +0.0000000000000000e+00 +9.9999694966864372e-01
-3.1000000000000014e+00 +4.6427439616044834e+00 +0.0000000000000000e+00 -3.0999966343544680e+00 +2.5522816232379768e-03 +0.0000000000000000e+00 +9.9999674292395357e-01
-3.2000000000000015e+00 +4.6424846168655325e+00 +0.0000000000000000e+00 -3.1999962980271905e+00 +2.6346131539961631e-03 +0.0000000000000000e+00 +9.9999652940074191e-01
-3.3000000000000016e+00 +4.6422170389740520e+00 +0.0000000000000000e+00 -3.2999959400086656e+00 +2.7169446737187386e-03 +0.0000000000000000e+00 +9.9999630909900861e-01
-3.4000000000000017e+00 +4.6419412279311816e+00 +0.0000000000000000e+00 -3.3999955596210416e+00 +2.7992761816547904e-03 +0.0000000000000000e+00 +9.9999608201875412e-01
-3.5000000000000018e+00 +4.6416571837381415e+00 +0.0000000000000000e+00 -3.4999951561864657e+00 +2.8816076769668034e-03 +0.0000000000000000e+00 +9.9999584815997911e-01
-3.6000000000000019e+00 +4.6413649063962392e+00 +0.0000000000000000e+00 -3.5999947290270864e+00 +2.9639391587305665e-03 +0.0000000000000000e+00 +9.9999560752268468e-01
-3.7000000000000020e+00 +4.6410643959068798e+00 +0.0000000000000000e+00 -3.6999942774650521e+00 +3.0462706259350770e-03 +0.0000000000000000e+00 +9.9999536010687240e-01
-3.8000000000000020e+00 +4.6407556522715740e+00 +0.0000000000000000e+00 -3.7999938008225107e+00 +3.1286020774824370e-03 +0.0000000000000000e+00 +9.9999510591254426e-01
-3.9000000000000021e+00 +4.6404386754919447e+00 +0.0000000000000000e+00 -3.8999932984216108e+00 +3.2109335121877458e-03 +0.0000000000000000e+00 +9.9999484493970270e-01
-4.0000000000000018e+00 +4.6401134655697396e+00 +0.0000000000000000e+00 -3.9999927695845012e+00 +3.2932649287789866e-03 +0.0000000000000000e+00 +9.9999457718835083e-01
-4.1000000000000014e+00 +4.6397800225068373e+00 +0.0000000000000000e+00 -4.0999922136333309e+00 +3.3755963259016557e-03 +0.0000000000000000e+00 +9.9999430265849232e-01
-4.2000000000000011e+00 +4.6394383463052540e+00 +0.0000000000000000e+00 -4.1999916298902491e+00 +3.4579277021708917e-03 +0.0000000000000000e+00 +9.9999402135013105e-01
-4.3000000000000007e+00 +4.6390884369671435e+00 +0.0000000000000000e+00 -4.2999910176774065e+00 +3.5402590562237045e-03 +0.0000000000000000e+00 +9.9999373326327134e-01
-4.4000000000000004e+00 +4.6387302944947946e+00 +0.0000000000000000e+00 -4.3999903763169534e+00 +3.6225903867237738e-03 +0.0000000000000000e+00 +9.9999343839791766e-01
-4.5000000000000000e+00 +4.6383639188906276e+00 +0.0000000000000000e+00 -4.4999897051310400e+00 +3.7049216923615014e-03 +0.0000000000000000e+00 +9.9999313675407464e-01
-4.5999999999999996e+00 +4.6379893101571934e+00 +0.0000000000000000e+00 -4.5999890034418183e+00 +3.7872529718540725e-03 +0.0000000000000000e+00 +9.9999282833174719e-01
-4.6999999999999993e+00 +4.6376064682971698e+00 +0.0000000000000000e+00 -4.6999882705714402e+00 +3.8695842239455194e-03 +0.0000000000000000e+00 +9.9999251313094029e-01
-4.7999999999999989e+00 +4.6372153933133582e+00 +0.0000000000000000e+00 -4.7999875058420578e+00 +3.9519154474067916e-03 +0.0000000000000000e+00 +9.9999219115165916e-01
-4.8999999999999986e+00 +4.6368160852086824e+00 +0.0000000000000000e+00 -4.8999867085758231e+00 +4.0342466410358329e-03 +0.0000000000000000e+00 +9.9999186239390925e-01
-4.9999999999999982e+00 +4.6364085439861844e+00 +0.0000000000000000e+00 -4.9999858780948907e+00 +4.1165778036576593e-03 +0.0000000000000000e+00 +9.9999152685769610e-01
-5.0999999999999979e+00 +4.6359927696490226e+00 +0.0000000000000000e+00 -5.0999850137214136e+00 +4.1989089341244457e-03 +0.0000000000000000e+00 +9.9999118454302527e-01
-5.1999999999999975e+00 +4.6355687622004691e+00 +0.0000000000000000e+00 -5.1999841147775472e+00 +4.2812400313156180e-03 +0.0000000000000000e+00 +9.9999083544990264e-01
-5.2999999999999972e+00 +4.6351365216439051e+00 +0.0000000000000000e+00 -5.2999831805854463e+00 +4.3635710941379476e-03 +0.0000000000000000e+00 +9.9999047957833398e-01
-5.3999999999999968e+00 +4.6346960479828221e+00 +0.0000000000000000e+00 -5.3999822104672663e+00 +4.4459021215256531e-03 +0.0000000000000000e+00 +9.9999011692832540e-01
-5.4999999999999964e+00 +4.6342473412208154e+00 +0.0000000000000000e+00 -5.4999812037451639e+00 +4.5282331124405079e-03 +0.0000000000000000e+00 +9.9998974749988290e-01
-5.5999999999999961e+00 +4.6337904013615834e+00 +0.0000000000000000e+00 -5.5999801597412953e+00 +4.6105640658719495e-03 +0.0000000000000000e+00 +9.9998937129301257e-01
-5.6999999999999957e+00 +4.6333252284089230e+00 +0.0000000000000000e+00 -5.6999790777778188e+00 +4.6928949808371983e-03 +0.0000000000000000e+00 +9.9998898830772076e-01
-5.7999999999999954e+00 +4.6328518223667299e+00 +0.0000000000000000e+00 -5.7999779571768926e+00 +4.7752258563813800e-03 +0.0000000000000000e+00 +9.9998859854401367e-01
-5.8999999999999950e+00 +4.6323701832389919e+00 +0.0000000000000000e+00 -5.8999767972606749e+00 +4.8575566915776509e-03 +0.0000000000000000e+00 +9.9998820200189764e-01
-5.9999999999999947e+00 +4.6318803110297893e+00 +0.0000000000000000e+00 -5.9999755973513258e+00 +4.9398874855273323e-03 +0.0000000000000000e+00 +9.9998779868137899e-01
-6.0999999999999943e+00 +4.6313822057432903e+00 +0.0000000000000000e+00 -6.0999743567710043e+00 +5.0222182373597362e-03 +0.0000000000000000e+00 +9.9998738858246417e-01
-6.1999999999999940e+00 +4.6308758673837493e+00 +0.0000000000000000e+00 -6.1999730748418722e+00 +5.1045489462288500e-03 +0.0000000000000000e+00 +9.9998697170515949e-01
-6.2999999999999936e+00 +4.6303612959555043e+00 +0.0000000000000000e+00 -6.2999717508860904e+00 +5.1868796113099100e-03 +0.0000000000000000e+00 +9.9998654804947140e-01
-6.3999999999999932e+00 +4.6298384914629738e+00 +0.0000000000000000e+00 -6.3999703842258207e+00 +5.2692102317990295e-03 +0.0000000000000000e+00 +9.9998611761540623e-01
-6.4999999999999929e+00 +4.6293074539106565e+00 +0.0000000000000000e+00 -6.4999689741832256e+00 +5.3515408069131328e-03 +0.0000000000000000e+00 +9.9998568040297053e-01
-6.5999999999999925e+00 +4.6287681833031291e+00 +0.0000000000000000e+00 -6.5999675200804688e+00 +5.4338713358898843e-03 +0.0000000000000000e+00 +9.9998523641217074e-01
-6.6999999999999922e+00 +4.6282206796450414e+00 +0.0000000000000000e+00 -6.6999660212397147e+00 +5.5162018179876152e-03 +0.0000000000000000e+00 +9.9998478564301330e-01
-6.7999999999999918e+00 +4.6276649429411183e+00 +0.0000000000000000e+00 -6.7999644769831269e+00 +5.5985322524852495e-03 +0.0000000000000000e+00 +9.9998432809550464e-01
-6.8999999999999915e+00 +4.6271009731961543e+00 +0.0000000000000000e+00 -6.8999628866328706e+00 +5.6808626386822200e-03 +0.0000000000000000e+00 +9.9998386376965120e-01
-6.9999999999999911e+00 +4.6265287704150140e+00 +0.0000000000000000e+00 -6.9999612495111121e+00 +5.7631929758983893e-03 +0.0000000000000000e+00 +9.9998339266545944e-01
-7.0999999999999908e+00 +4.6259483346026293e+00 +0.0000000000000000e+00 -7.0999595649400176e+00 +5.8455232634739614e-03 +0.0000000000000000e+00 +9.9998291478293566e-01
-7.1999999999999904e+00 +4.6253596657639955e+00 +0.0000000000000000e+00 -7.1999578322417550e+00 +5.9278535007693924e-03 +0.0000000000000000e+00 +9.9998243012208632e-01
-7.2999999999999901e+00 +4.6247627639041724e+00 +0.0000000000000000e+00 -7.2999560507384915e+00 +6.0101836871652974e-03 +0.0000000000000000e+00 +9.9998193868291763e-01
-7.3999999999999897e+00 +4.6241576290282795e+00 +0.0000000000000000e+00 -7.3999542197523951e+00 +6.0925138220623539e-03 +0.0000000000000000e+00 +9.9998144046543580e-01
-7.4999999999999893e+00 +4.6235442611414959e+00 +0.0000000000000000e+00 -7.4999523386056355e+00 +6.1748439048812031e-03 +0.0000000000000000e+00 +9.9998093546964695e-01
-7.5999999999999890e+00 +4.6229226602490581e+00 +0.0000000000000000e+00 -7.5999504066203816e+00 +6.2571739350623457e-03 +0.0000000000000000e+00 +9.9998042369555729e-01
-7.6999999999999886e+00 +4.6222928263562562e+00 +0.0000000000000000e+00 -7.6999484231188040e+00 +6.3395039120660371e-03 +0.0000000000000000e+00 +9.9997990514317281e-01
-7.7999999999999883e+00 +4.6216547594684343e+00 +0.0000000000000000e+00 -7.7999463874230734e+00 +6.4218338353721777e-03 +0.0000000000000000e+00 +9.9997937981249940e-01
-7.8999999999999879e+00 +4.6210084595909882e+00 +0.0000000000000000e+00 -7.8999442988553614e+00 +6.5041637044801984e-03 +0.0000000000000000e+00 +9.9997884770354284e-01
-7.9999999999999876e+00 +4.6203539267293614e+00 +0.0000000000000000e+00 -7.9999421567378395e+00 +6.5864935189089467e-03 +0.0000000000000000e+00 +9.9997830881630900e-01
-8.0999999999999872e+00 +4.6196911608890447e+00 +0.0000000000000000e+00 -8.0999399603926800e+00 +6.6688232781935471e-03 +0.0000000000000000e+00 +9.9997776315080344e-01
-8.1999999999999869e+00 +4.6190201620755769e+00 +0.0000000000000000e+00 -8.1999377091420573e+00 +6.7511529818520682e-03 +0.0000000000000000e+00 +9.9997721070703194e-01
-8.2999999999999865e+00 +4.6183409302945462e+00 +0.0000000000000000e+00 -8.2999354023081438e+00 +6.8334826293522622e-03 +0.0000000000000000e+00 +9.9997665148500070e-01
-8.3999999999999861e+00 +4.6176534655515979e+00 +0.0000000000000000e+00 -8.3999330392131153e+00 +6.9158122201086400e-03 +0.0000000000000000e+00 +9.9997608548471617e-01
-8.4999999999999858e+00 +4.6169577678524378e+00 +0.0000000000000000e+00 -8.4999306191791462e+00 +6.9981417534825752e-03 +0.0000000000000000e+00 +9.9997551270618534e-01
-8.5999999999999854e+00 +4.6162538372028372e+00 +0.0000000000000000e+00 -8.5999281415284123e+00 +7.0804712287824180e-03 +0.0000000000000000e+00 +9.9997493314941577e-01
-8.6999999999999851e+00 +4.6155416736086412e+00 +0.0000000000000000e+00 -8.6999256055830898e+00 +7.1628006452636121e-03 +0.0000000000000000e+00 +9.9997434681441522e-01
-8.7999999999999847e+00 +4.6148212770757713e+00 +0.0000000000000000e+00 -8.7999230106653545e+00 +7.2451300021288108e-03 +0.0000000000000000e+00 +9.9997375370119213e-01
-8.8999999999999844e+00 +4.6140926476102306e+00 +0.0000000000000000e+00 -8.8999203560973879e+00 +7.3274592985280050e-03 +0.0000000000000000e+00 +9.9997315380975538e-01
-8.9999999999999840e+00 +4.6133557852181113e+00 +0.0000000000000000e+00 -8.9999176412013657e+00 +7.4097885335586465e-03 +0.0000000000000000e+00 +9.9997254714011430e-01
-9.0999999999999837e+00 +4.6126106899055968e+00 +0.0000000000000000e+00 -9.0999148652994695e+00 +7.4921177062657798e-03 +0.0000000000000000e+00 +9.9997193369227899e-01
-9.1999999999999833e+00 +4.6118573616789691e+00 +0.0000000000000000e+00 -9.1999120277138804e+00 +7.5744468156421756e-03 +0.0000000000000000e+00 +9.9997131346626000e-01
-9.2999999999999829e+00 +4.6110958005446143e+00 +0.0000000000000000e+00 -9.2999091277667816e+00 +7.6567758606284715e-03 +0.0000000000000000e+00 +9.9997068646206844e-01
-9.3999999999999826e+00 +4.6103260065090268e+00 +0.0000000000000000e+00 -9.3999061647803561e+00 +7.7391048401133106e-03 +0.0000000000000000e+00 +9.9997005267971606e-01
-9.4999999999999822e+00 +4.6095479795788137e+00 +0.0000000000000000e+00 -9.4999031380767871e+00 +7.8214337529334890e-03 +0.0000000000000000e+00 +9.9996941211921520e-01
-9.5999999999999819e+00 +4.6087617197607020e+00 +0.0000000000000000e+00 -9.5999000469782612e+00 +7.9037625978741043e-03 +0.0000000000000000e+00 +9.9996876478057894e-01
-9.6999999999999815e+00 +4.6079672270615433e+00 +0.0000000000000000e+00 -9.6998968908069649e+00 +7.9860913736687078e-03 +0.0000000000000000e+00 +9.9996811066382096e-01
-9.7999999999999812e+00 +4.6071645014883167e+00 +0.0000000000000000e+00 -9.7998936688850886e+00 +8.0684200789994647e-03 +0.0000000000000000e+00 +9.9996744976895580e-01
-9.8999999999999808e+00 +4.6063535430481375e+00 +0.0000000000000000e+00 -9.8998903805348206e+00 +8.1507487124973105e-03 +0.0000000000000000e+00 +9.9996678209599843e-01
-9.9999999999999805e+00 +4.6055343517482594e+00 +0.0000000000000000e+00 -9.9998870250783529e+00 +8.2330772727421155e-03 +0.0000000000000000e+00 +9.9996610764496485e-01
-1.0099999999999980e+01 +4.6047069275960801e+00 +0.0000000000000000e+00 -1.0099883601837879e+01 +8.3154057582687547e-03 +0.0000000000000000e+00 +9.9996542641587149e-01
-1.0199999999999980e+01 +4.6038712705991447e+00 +0.0000000000000000e+00 -1.0199880110135593e+01 +8.3977341676323546e-03 +0.0000000000000000e+00 +9.9996473840873512e-01
-1.0299999999999979e+01 +4.6030273807651376e+00 +0.0000000000000000e+00 -1.0299876549293693e+01 +8.4800624994735962e-03 +0.0000000000000000e+00 +9.9996404362357216e-01
-1.0399999999999979e+01 +4.6021752581018758e+00 +0.0000000000000000e+00 -1.0399872918634374e+01 +8.5623907525246411e-03 +0.0000000000000000e+00 +9.9996334206039839e-01
-1.0499999999999979e+01 +4.6013149026172977e+00 +0.0000000000000000e+00 -1.0499869217479839e+01 +8.6447189256090972e-03 +0.0000000000000000e+00 +9.9996263371922922e-01
-1.0599999999999978e+01 +4.6004463143194556e+00 +0.0000000000000000e+00 -1.0599865445152288e+01 +8.7270470176419885e-03 +0.0000000000000000e+00 +9.9996191860007955e-01
-1.0699999999999978e+01 +4.5995694932165048e+00 +0.0000000000000000e+00 -1.0699861600973923e+01 +8.8093750276297192e-03 +0.0000000000000000e+00 +9.9996119670296346e-01
-1.0799999999999978e+01 +4.5986844393166955e+00 +0.0000000000000000e+00 -1.0799857684266950e+01 +8.8917029546700388e-03 +0.0000000000000000e+00 +9.9996046802789462e-01
-1.0899999999999977e+01 +4.5977911526283632e+00 +0.0000000000000000e+00 -1.0899853694353572e+01 +8.9740307979520022e-03 +0.0000000000000000e+00 +9.9995973257488602e-01
-1.0999999999999977e+01 +4.5968896331599209e+00 +0.0000000000000000e+00 -1.0999849630555996e+01 +9.0563585567559352e-03 +0.0000000000000000e+00 +9.9995899034394986e-01
-1.1099999999999977e+01 +4.5959798809198489e+00 +0.0000000000000000e+00 -1.1099845492196431e+01 +9.1386862304533890e-03 +0.0000000000000000e+00 +9.9995824133509770e-01
-1.1199999999999976e+01 +4.5950618959166851e+00 +0.0000000000000000e+00 -1.1199841278597086e+01 +9.2210138185071008e-03 +0.0000000000000000e+00 +9.9995748554834019e-01
-1.1299999999999976e+01 +4.5941356781590175e+00 +0.0000000000000000e+00 -1.1299836989080170e+01 +9.3033413204709498e-03 +0.0000000000000000e+00 +9.9995672298368732e-01
-1.1399999999999975e+01 +4.5932012276554728e+00 +0.0000000000000000e+00 -1.1399832622967894e+01 +9.3856687359899112e-03 +0.0000000000000000e+00 +9.9995595364114820e-01
-1.1499999999999975e+01 +4.5922585444147099e+00 +0.0000000000000000e+00 -1.1499828179582471e+01 +9.4679960648000119e-03 +0.0000000000000000e+00 +9.9995517752073104e-01
-1.1599999999999975e+01 +4.5913076284454091e+00 +0.0000000000000000e+00 -1.1599823658246111e+01 +9.5503233067282794e-03 +0.0000000000000000e+00 +9.9995439462244318e-01
-1.1699999999999974e+01 +4.5903484797562628e+00 +0.0000000000000000e+00 -1.1699819058281030e+01 +9.6326504616926940e-03 +0.0000000000000000e+00 +9.9995360494629082e-01
