# trajectory
# s[mm] rx[mm] ry[mm] rz[mm] px[rad] py[rad] pz[rad]
0.0000000000000000e+00 +4.6467000000000001e+00 +0.0000000000000000e+00 +0.0000000000000000e+00 +0.0000000000000000e+00 +0.0000000000000000e+00 +1.0000000000000000e+00
1.0000000000000001e-01 +4.6466956831935446e+00 +0.0000000000000000e+00 +9.9999999875767881e-02 -8.6336129133883377e-05 +0.0000000000000000e+00 +9.9999999627303637e-01
2.0000000000000001e-01 +4.6466827327741731e+00 +0.0000000000000000e+00 +1.9999999900614301e-01 -1.7267225827695258e-04 +0.0000000000000000e+00 +9.9999998509214549e-01
3.0000000000000004e-01 +4.6466611487418987e+00 +0.0000000000000000e+00 +2.9999999664573274e-01 -2.5900838714044765e-04 +0.0000000000000000e+00 +9.9999996645732714e-01
4.0000000000000002e-01 +4.6466309310967642e+00 +0.0000000000000000e+00 +3.9999999204914422e-01 -3.4534451543367510e-04 +0.0000000000000000e+00 +9.9999994036858109e-01
5.0000000000000000e-01 +4.6465920798388405e+00 +0.0000000000000000e+00 +4.9999998447098470e-01 -4.3168064286399006e-04 +0.0000000000000000e+00 +9.9999990682590700e-01
5.9999999999999998e-01 +4.6465445949682298e+00 +0.0000000000000000e+00 +5.9999997316586140e-01 -5.1801676913678307e-04 +0.0000000000000000e+00 +9.9999986582930445e-01
6.9999999999999996e-01 +4.6464884764850618e+00 +0.0000000000000000e+00 +6.9999995738838139e-01 -6.0435289395547101e-04 +0.0000000000000000e+00 +9.9999981737877308e-01
7.9999999999999993e-01 +4.6464237243894972e+00 +0.0000000000000000e+00 +7.9999993639315170e-01 -6.9068901702149302e-04 +0.0000000000000000e+00 +9.9999976147431235e-01
8.9999999999999991e-01 +4.6463503386817262e+00 +0.0000000000000000e+00 +8.9999990943477948e-01 -7.7702513803431031e-04 +0.0000000000000000e+00 +9.9999969811592182e-01
9.9999999999999989e-01 +4.6462683193619689e+00 +0.0000000000000000e+00 +9.9999987576787164e-01 -8.6336125669141052e-04 +0.0000000000000000e+00 +9.9999962730360070e-01
1.0999999999999999e+00 +4.6461776664304768e+00 +0.0000000000000000e+00 +1.0999998346470352e+00 -9.4969737268831705e-04 +0.0000000000000000e+00 +9.9999954903734845e-01
1.2000000000000000e+00 +4.6460783798875305e+00 +0.0000000000000000e+00 +1.1999997853268769e+00 -1.0360334857186023e-03 +0.0000000000000000e+00 +9.9999946331716416e-01
1.3000000000000000e+00 +4.6459704597334426e+00 +0.0000000000000000e+00 +1.2999997270620036e+00 -1.1223695954739054e-03 +0.0000000000000000e+00 +9.9999937014304718e-01
1.4000000000000001e+00 +4.6458539059685551e+00 +0.0000000000000000e+00 +1.3999996591070218e+00 -1.2087057016439550e-03 +0.0000000000000000e+00 +9.9999926951499651e-01
1.5000000000000002e+00 +4.6457287185932437e+00 +0.0000000000000000e+00 +1.4999995807165383e+00 -1.2950418039165954e-03 +0.0000000000000000e+00 +9.9999916143301137e-01
1.6000000000000003e+00 +4.6455948976079124e+00 +0.0000000000000000e+00 +1.5999994911451596e+00 -1.3813779019778186e-03 +0.0000000000000000e+00 +9.9999904589709077e-01
1.7000000000000004e+00 +4.6454524430129993e+00 +0.0000000000000000e+00 +1.6999993896474919e+00 -1.4677139955117991e-03 +0.0000000000000000e+00 +9.9999892290723358e-01
1.8000000000000005e+00 +4.6453013548089723e+00 +0.0000000000000000e+00 +1.7999992754781415e+00 -1.5540500842009346e-03 +0.0000000000000000e+00 +9.9999879246343881e-01
1.9000000000000006e+00 +4.6451416329963315e+00 +0.0000000000000000e+00 +1.8999991478917149e+00 -1.6403861677258909e-03 +0.0000000000000000e+00 +9.9999865456570525e-01
2.0000000000000004e+00 +4.6449732775756098e+00 +0.0000000000000000e+00 +1.9999990061428179e+00 -1.7267222457656502e-03 +0.0000000000000000e+00 +9.9999850921403177e-01
2.1000000000000005e+00 +4.6447962885473721e+00 +0.0000000000000000e+00 +2.0999988494860564e+00 -1.8130583179963170e-03 +0.0000000000000000e+00 +9.9999835640841706e-01
2.2000000000000006e+00 +4.6446106659122153e+00 +0.0000000000000000e+00 +2.1999986771760365e+00 -1.8993943840774307e-03 +0.0000000000000000e+00 +9.9999819614885987e-01
2.3000000000000007e+00 +4.6444164096707734e+00 +0.0000000000000000e+00 +2.2999984884673634e+00 -1.9857304436382444e-03 +0.0000000000000000e+00 +9.9999802843535901e-01
2.4000000000000008e+00 +4.6442135198237180e+00 +0.0000000000000000e+00 +2.3999982826146433e+00 -2.0720664962764652e-03 +0.0000000000000000e+00 +9.9999785326791324e-01
2.5000000000000009e+00 +4.6440019963717631e+00 +0.0000000000000000e+00 +2.4999980588724813e+00 -2.1584025415582399e-03 +0.0000000000000000e+00 +9.9999767064652134e-01
2.6000000000000010e+00 +4.6437818393156673e+00 +0.0000000000000000e+00 +2.5999978164954829e+00 -2.2447385790181347e-03 +0.0000000000000000e+00 +9.9999748057118221e-01
2.7000000000000011e+00 +4.6435530486562371e+00 +0.0000000000000000e+00 +2.6999975547382529e+00 -2.3310746081591145e-03 +0.0000000000000000e+00 +9.9999728304189472e-01
2.8000000000000012e+00 +4.6433156243943303e+00 +0.0000000000000000e+00 +2.7999972728553968e+00 -2.4174106284525149e-03 +0.0000000000000000e+00 +9.9999707805865790e-01
2.9000000000000012e+00 +4.6430695665308601e+00 +0.0000000000000000e+00 +2.8999969701015194e+00 -2.5037466393380129e-03 +0.0000000000000000e+00 +9.9999686562147083e-01
3.0000000000000013e+00 +4.6428148750667964e+00 +0.0000000000000000e+00 +2.9999966457312257e+00 -2.5900826402235934e-03 +0.0000000000000000e+00 +9.9999664573033287e-01
3.1000000000000014e+00 +4.6425515500031693e+00 +0.0000000000000000e+00 +3.0999962989991205e+00 -2.6764186304855100e-03 +0.0000000000000000e+00 +9.9999641838524322e-01
3.2000000000000015e+00 +4.6422795913410750e+00 +0.0000000000000000e+00 +3.1999959291598090e+00 -2.7627546094682446e-03 +0.0000000000000000e+00 +9.9999618358620146e-01
3.3000000000000016e+00 +4.6419989990816743e+00 +0.0000000000000000e+00 +3.2999955354678958e+00 -2.8490905764844625e-03 +0.0000000000000000e+00 +9.9999594133320713e-01
3.4000000000000017e+00 +4.6417097732262009e+00 +0.0000000000000000e+00 +3.3999951171779856e+00 -2.9354265308149628e-03 +0.0000000000000000e+00 +9.9999569162626012e-01
3.5000000000000018e+00 +4.6414119137759595e+00 +0.0000000000000000e+00 +3.4999946735446827e+00 -3.0217624717086256e-03 +0.0000000000000000e+00 +9.9999543446536032e-01
3.6000000000000019e+00 +4.6411054207323330e+00 +0.0000000000000000e+00 +3.5999942038225923e+00 -3.1080983983823559e-03 +0.0000000000000000e+00 +9.9999516985050785e-01
3.7000000000000020e+00 +4.6407902940967842e+00 +0.0000000000000000e+00 +3.6999937072663189e+00 -3.1944343100210231e-03 +0.0000000000000000e+00 +9.9999489778170325e-01
3.8000000000000020e+00 +4.6404665338708586e+00 +0.0000000000000000e+00 +3.7999931831304679e+00 -3.2807702057773970e-03 +0.0000000000000000e+00 +9.9999461825894698e-01
3.9000000000000021e+00 +4.6401341400561877e+00 +0.0000000000000000e+00 +3.8999926306696433e+00 -3.3671060847720799e-03 +0.0000000000000000e+00 +9.9999433128223991e-01
4.0000000000000018e+00 +4.6397931126544929e+00 +0.0000000000000000e+00 +3.9999920491384509e+00 -3.4534419460934356e-03 +0.0000000000000000e+00 +9.9999403685158306e-01
4.1000000000000014e+00 +4.6394434516675895e+00 +0.0000000000000000e+00 +4.0999914377914948e+00 -3.5397777887983747e-03 +0.0000000000000000e+00 +9.9999373496697774e-01
4.2000000000000011e+00 +4.6390851570973863e+00 +0.0000000000000000e+00 +4.1999907958833811e+00 -3.6261136119217626e-03 +0.0000000000000000e+00 +9.9999342562842564e-01
4.3000000000000007e+00 +4.6387182289458906e+00 +0.0000000000000000e+00 +4.2999901226687154e+00 -3.7124494144858836e-03 +0.0000000000000000e+00 +9.9999310883592851e-01
4.4000000000000004e+00 +4.6383426672152073e+00 +0.0000000000000000e+00 +4.3999894174021028e+00 -3.7987851955013190e-03 +0.0000000000000000e+00 +9.9999278458948826e-01
4.5000000000000000e+00 +4.6379584719075417e+00 +0.0000000000000000e+00 +4.4999886793381485e+00 -3.8851209539669720e-03 +0.0000000000000000e+00 +9.9999245288910721e-01
4.5999999999999996e+00 +4.6375656430251997e+00 +0.0000000000000000e+00 +4.5999879077314594e+00 -3.9714566888700903e-03 +0.0000000000000000e+00 +9.9999211373478780e-01
4.6999999999999993e+00 +4.6371641805705881e+00 +0.0000000000000000e+00 +4.6999871018366415e+00 -4.0577923991862936e-03 +0.0000000000000000e+00 +9.9999176712653259e-01
4.7999999999999989e+00 +4.6367540845462170e+00 +0.0000000000000000e+00 +4.7999862609083017e+00 -4.1441280838796042e-03 +0.0000000000000000e+00 +9.9999141306434458e-01
4.8999999999999986e+00 +4.6363353549547011e+00 +0.0000000000000000e+00 +4.8999853842010461e+00 -4.2304637419024772e-03 +0.0000000000000000e+00 +9.9999105154822698e-01
4.9999999999999982e+00 +4.6359079917987609e+00 +0.0000000000000000e+00 +4.9999844709694825e+00 -4.3167993721958354e-03 +0.0000000000000000e+00 +9.9999068257818313e-01
5.0999999999999979e+00 +4.6354719950812218e+00 +0.0000000000000000e+00 +5.0999835204682187e+00 -4.4031349736891046e-03 +0.0000000000000000e+00 +9.9999030615421658e-01
5.1999999999999975e+00 +4.6350273648050191e+00 +0.0000000000000000e+00 +5.1999825319518624e+00 -4.4894705453002517e-03 +0.0000000000000000e+00 +9.9998992227633132e-01
5.2999999999999972e+00 +4.6345741009731949e+00 +0.0000000000000000e+00 +5.2999815046750216e+00 -4.5758060859358270e-03 +0.0000000000000000e+00 +9.9998953094453158e-01
5.3999999999999968e+00 +4.6341122035889013e+00 +0.0000000000000000e+00 +5.3999804378923049e+00 -4.6621415944910058e-03 +0.0000000000000000e+00 +9.9998913215882168e-01
5.4999999999999964e+00 +4.6336416726554033e+00 +0.0000000000000000e+00 +5.4999793308583218e+00 -4.7484770698496348e-03 +0.0000000000000000e+00 +9.9998872591920629e-01
5.5999999999999961e+00 +4.6331625081760759e+00 +0.0000000000000000e+00 +5.5999781828276829e+00 -4.8348125108842784e-03 +0.0000000000000000e+00 +9.9998831222569040e-01
5.6999999999999957e+00 +4.6326747101544088e+00 +0.0000000000000000e+00 +5.6999769930549968e+00 -4.9211479164562684e-03 +0.0000000000000000e+00 +9.9998789107827935e-01
5.7999999999999954e+00 +4.6321782785940053e+00 +0.0000000000000000e+00 +5.7999757607948759e+00 -5.0074832854157571e-03 +0.0000000000000000e+00 +9.9998746247697856e-01
5.8999999999999950e+00 +4.6316732134985852e+00 +0.0000000000000000e+00 +5.8999744853019305e+00 -5.0938186166017713e-03 +0.0000000000000000e+00 +9.9998702642179382e-01
5.9999999999999947e+00 +4.6311595148719835e+00 +0.0000000000000000e+00 +5.9999731658307720e+00 -5.1801539088422678e-03 +0.0000000000000000e+00 +9.9998658291273135e-01
6.0999999999999943e+00 +4.6306371827181545e+00 +0.0000000000000000e+00 +6.0999718016360136e+00 -5.2664891609567940e-03 +0.0000000000000000e+00 +9.9998613194979746e-01
6.1999999999999940e+00 +4.6301062170411686e+00 +0.0000000000000000e+00 +6.1999703919722693e+00 -5.3528243717851825e-03 +0.0000000000000000e+00 +9.9998567353299872e-01
6.2999999999999936e+00 +4.6295666178452111e+00 +0.0000000000000000e+00 +6.2999689360941522e+00 -5.4391595402162422e-03 +0.0000000000000000e+00 +9.9998520766234156e-01
6.3999999999999932e+00 +4.6290183851345743e+00 +0.0000000000000000e+00 +6.3999674332562764e+00 -5.5254946651903886e-03 +0.0000000000000000e+00 +9.9998473433783241e-01
6.4999999999999929e+00 +4.6284615189136549e+00 +0.0000000000000000e+00 +6.4999658827132576e+00 -5.6118297456996648e-03 +0.0000000000000000e+00 +9.9998425355947762e-01
6.5999999999999925e+00 +4.6278960191869478e+00 +0.0000000000000000e+00 +6.5999642837197108e+00 -5.6981647807877690e-03 +0.0000000000000000e+00 +9.9998376532728339e-01
6.6999999999999922e+00 +4.6273218859590415e+00 +0.0000000000000000e+00 +6.6999626355302526e+00 -5.7844997695500767e-03 +0.0000000000000000e+00 +9.9998326964125583e-01
6.7999999999999918e+00 +4.6267391192346103e+00 +0.0000000000000000e+00 +6.7999609373995007e+00 -5.8708347111336668e-03 +0.0000000000000000e+00 +9.9998276650140083e-01
6.8999999999999915e+00 +4.6261477190184142e+00 +0.0000000000000000e+00 +6.8999591885820717e+00 -5.9571696047373479e-03 +0.0000000000000000e+00 +9.9998225590772405e-01
6.9999999999999911e+00 +4.6255476853152873e+00 +0.0000000000000000e+00 +6.9999573883325850e+00 -6.0435044496116837e-03 +0.0000000000000000e+00 +9.9998173786023115e-01
7.0999999999999908e+00 +4.6249390181301386e+00 +0.0000000000000000e+00 +7.0999555359056581e+00 -6.1298392450590232e-03 +0.0000000000000000e+00 +9.9998121235892745e-01
7.1999999999999904e+00 +4.6243217174679438e+00 +0.0000000000000000e+00 +7.1999536305559104e+00 -6.2161739904335270e-03 +0.0000000000000000e+00 +9.9998067940381796e-01
7.2999999999999901e+00 +4.6236957833337406e+00 +0.0000000000000000e+00 +7.2999516715379613e+00 -6.3025086851411956e-03 +0.0000000000000000e+00 +9.9998013899490745e-01
7.3999999999999897e+00 +4.6230612157326227e+00 +0.0000000000000000e+00 +7.3999496581064319e+00 -6.3888433286399008e-03 +0.0000000000000000e+00 +9.9997959113220047e-01
7.4999999999999893e+00 +4.6224180146697362e+00 +0.0000000000000000e+00 +7.4999475895159415e+00 -6.4751779204394160e-03 +0.0000000000000000e+00 +9.9997903581570113e-01
7.5999999999999890e+00 +4.6217661801502734e+00 +0.0000000000000000e+00 +7.5999454650211122e+00 -6.5615124601014468e-03 +0.0000000000000000e+00 +9.9997847304541343e-01
7.6999999999999886e+00 +4.6211057121794674e+00 +0.0000000000000000e+00 +7.6999432838765651e+00 -6.6478469472396632e-03 +0.0000000000000000e+00 +9.9997790282134069e-01
7.7999999999999883e+00 +4.6204366107625878e+00 +0.0000000000000000e+00 +7.7999410453369213e+00 -6.7341813815197321e-03 +0.0000000000000000e+00 +9.9997732514348614e-01
7.8999999999999879e+00 +4.6197588759049353e+00 +0.0000000000000000e+00 +7.8999387486568029e+00 -6.8205157626593524e-03 +0.0000000000000000e+00 +9.9997674001185244e-01
7.9999999999999876e+00 +4.6190725076118353e+00 +0.0000000000000000e+00 +7.9999363930908327e+00 -6.9068500904282881e-03 +0.0000000000000000e+00 +9.9997614742644181e-01
8.0999999999999872e+00 +4.6183775058886347e+00 +0.0000000000000000e+00 +8.0999339778936328e+00 -6.9931843646439777e-03 +0.0000000000000000e+00 +9.9997554738725614e-01
8.1999999999999869e+00 +4.6176738707406972e+00 +0.0000000000000000e+00 +8.1999315023198260e+00 -7.0795185851227870e-03 +0.0000000000000000e+00 +9.9997493989429720e-01
8.2999999999999865e+00 +4.6169616021734088e+00 +0.0000000000000000e+00 +8.2999289656240336e+00 -7.1658527516311578e-03 +0.0000000000000000e+00 +9.9997432494756699e-01
8.3999999999999861e+00 +4.6162407001921792e+00 +0.0000000000000000e+00 +8.3999263670608801e+00 -7.2521868638811384e-03 +0.0000000000000000e+00 +9.9997370254706786e-01
8.4999999999999858e+00 +4.6155111648024523e+00 +0.0000000000000000e+00 +8.4999237058849886e+00 -7.3385209215303540e-03 +0.0000000000000000e+00 +9.9997307269280244e-01
8.5999999999999854e+00 +4.6147729960097061e+00 +0.0000000000000000e+00 +8.5999209813509818e+00 -7.4248549241819834e-03 +0.0000000000000000e+00 +9.9997243538477365e-01
8.6999999999999851e+00 +4.6140261938194636e+00 +0.0000000000000000e+00 +8.6999181927134845e+00 -7.5111888713847268e-03 +0.0000000000000000e+00 +9.9997179062298491e-01
8.7999999999999847e+00 +4.6132707582372943e+00 +0.0000000000000000e+00 +8.7999153392271197e+00 -7.5975227626327788e-03 +0.0000000000000000e+00 +9.9997113840744012e-01
8.8999999999999844e+00 +4.6125066892688205e+00 +0.0000000000000000e+00 +8.8999124201465136e+00 -7.6838565973657942e-03 +0.0000000000000000e+00 +9.9997047873814338e-01
8.9999999999999840e+00 +4.6117339869197247e+00 +0.0000000000000000e+00 +8.9999094347262911e+00 -7.7701903749688578e-03 +0.0000000000000000e+00 +9.9996981161509935e-01
9.0999999999999837e+00 +4.6109526511957526e+00 +0.0000000000000000e+00 +9.0999063822210768e+00 -7.8565240947724505e-03 +0.0000000000000000e+00 +9.9996913703831325e-01
9.1999999999999833e+00 +4.6101626821027208e+00 +0.0000000000000000e+00 +9.1999032618854972e+00 -7.9428577560524127e-03 +0.0000000000000000e+00 +9.9996845500779064e-01
9.2999999999999829e+00 +4.6093640796465190e+00 +0.0000000000000000e+00 +9.2999000729741788e+00 -8.0291913580299093e-03 +0.0000000000000000e+00 +9.9996776552353772e-01
9.3999999999999826e+00 +4.6085568438331190e+00 +0.0000000000000000e+00 +9.3998968147417479e+00 -8.1155248998713934e-03 +0.0000000000000000e+00 +9.9996706858556117e-01
9.4999999999999822e+00 +4.6077409746685785e+00 +0.0000000000000000e+00 +9.4998934864428328e+00 -8.2018583806885634e-03 +0.0000000000000000e+00 +9.9996636419386831e-01
9.5999999999999819e+00 +4.6069164721590470e+00 +0.0000000000000000e+00 +9.5998900873320636e+00 -8.2881917995383247e-03 +0.0000000000000000e+00 +9.9996565234846690e-01
9.6999999999999815e+00 +4.6060833363107703e+00 +0.0000000000000000e+00 +9.6998866166640703e+00 -8.3745251554227500e-03 +0.0000000000000000e+00 +9.9996493304936551e-01
9.7999999999999812e+00 +4.6052415671300970e+00 +0.0000000000000000e+00 +9.7998830736934810e+00 -8.4608584472890339e-03 +0.0000000000000000e+00 +9.9996420629657334e-01
9.8999999999999808e+00 +4.6043911646234834e+00 +0.0000000000000000e+00 +9.8998794576749294e+00 -8.5471916740294494e-03 +0.0000000000000000e+00 +9.9996347209010006e-01
9.9999999999999805e+00 +4.6035321287975002e+00 +0.0000000000000000e+00 +9.9998757678630454e+00 -8.6335248344813001e-03 +0.0000000000000000e+00 +9.9996273042995620e-01
1.0099999999999980e+01 +4.6026644596588371e+00 +0.0000000000000000e+00 +1.0099872003512465e+01 -8.7198579274314243e-03 +0.0000000000000000e+00 +9.9996198131615299e-01
1.0199999999999980e+01 +4.6017881572143047e+00 +0.0000000000000000e+00 +1.0199868163877820e+01 -8.8061909516663536e-03 +0.0000000000000000e+00 +9.9996122474870175e-01
1.0299999999999979e+01 +4.6009032214708334e+00 +0.0000000000000000e+00 +1.0299864248213749e+01 -8.8925239060225723e-03 +0.0000000000000000e+00 +9.9996046072761380e-01
1.0399999999999979e+01 +4.6000096524354666e+00 +0.0000000000000000e+00 +1.0399860255774888e+01 -8.9788567893910182e-03 +0.0000000000000000e+00 +9.9995968925290002e-01
1.0499999999999979e+01 +4.5991074501153566e+00 +0.0000000000000000e+00 +1.0499856185815874e+01 -9.0651896007169705e-03 +0.0000000000000000e+00 +9.9995891032457118e-01
1.0599999999999978e+01 +4.5981966145177582e+00 +0.0000000000000000e+00 +1.0599852037591347e+01 -9.1515223389999466e-03 +0.0000000000000000e+00 +9.9995812394263772e-01
1.0699999999999978e+01 +4.5972771456500228e+00 +0.0000000000000000e+00 +1.0699847810355948e+01 -9.2378550032935890e-03 +0.0000000000000000e+00 +9.9995733010710963e-01
1.0799999999999978e+01 +4.5963490435195951e+00 +0.0000000000000000e+00 +1.0799843503364317e+01 -9.3241875927055559e-03 +0.0000000000000000e+00 +9.9995652881799668e-01
1.0899999999999977e+01 +4.5954123081340059e+00 +0.0000000000000000e+00 +1.0899839115871094e+01 -9.4105201063974051e-03 +0.0000000000000000e+00 +9.9995572007530820e-01
1.0999999999999977e+01 +4.5944669395008662e+00 +0.0000000000000000e+00 +1.0999834647130925e+01 -9.4968525435844778e-03 +0.0000000000000000e+00 +9.9995490387905317e-01
1.1099999999999977e+01 +4.5935129376278638e+00 +0.0000000000000000e+00 +1.1099830096398453e+01 -9.5831849035357790e-03 +0.0000000000000000e+00 +9.9995408022924015e-01
1.1199999999999976e+01 +4.5925503025227563e+00 +0.0000000000000000e+00 +1.1199825462928322e+01 -9.6695171855738539e-03 +0.0000000000000000e+00 +9.9995324912587735e-01
1.1299999999999976e+01 +4.5915790341933667e+00 +0.0000000000000000e+00 +1.1299820745975177e+01 -9.7558493890746670e-03 +0.0000000000000000e+00 +9.9995241056897244e-01
1.1399999999999975e+01 +4.5905991326475784e+00 +0.0000000000000000e+00 +1.1399815944793666e+01 -9.8421815134674719e-03 +0.0000000000000000e+00 +9.9995156455853251e-01
1.1499999999999975e+01 +4.5896105978933273e+00 +0.0000000000000000e+00 +1.1499811058638434e+01 -9.9285135582346841e-03 +0.0000000000000000e+00 +9.9995071109456446e-01
1.1599999999999975e+01 +4.5886134299386008e+00 +0.0000000000000000e+00 +1.1599806086764129e+01 -1.0014845522911752e-02 +0.0000000000000000e+00 +9.9994985017707427e-01
1.1699999999999974e+01 +4.5876076287914280e+00 +0.0000000000000000e+00 +1.1699801028425400e+01 -1.0101177407087018e-02 +0.0000000000000000e+00 +9.9994898180606773e-01
1.1799999999999974e+01 +4.5865931944598781e+00 +0.0000000000000000e+00 +1.1799795882876893e+01 -1.0187509210401586e-02 +0.0000000000000000e+00 +9.9994810598154993e-01
