# multipoles
# s[mm] polynom_b[n=0][T/m^n] polynom_b[n=1][T/m^n] polynom_b[n=2][T/m^n] polynom_b[n=3][T/m^n] polynom_b[n=4][T/m^n] polynom_b[n=5][T/m^n] polynom_b[n=6][T/m^n] 
+0.0000000000000000e+00 +4.1195202036805545e-01 -8.8857956496928275e-04 -2.6148244280855765e-01 +2.8571285205558108e+00 +1.6460015792463705e+03 +1.1741865435499148e+05 -8.0164575660588900e+06 
-1.0000000000000001e-01 +4.1195208766987401e-01 -8.9416503564783661e-04 -2.6425171482453902e-01 +2.9805975358013197e+00 +1.6872175491948858e+03 +1.1667522114871723e+05 -8.1925273825289737e+06 
-2.0000000000000001e-01 +4.1195215456715961e-01 -9.0076921105646099e-04 -2.6708870312544136e-01 +3.1152036709219204e+00 +1.7293225687175063e+03 +1.1589119912750003e+05 -8.3710965036499584e+06 
-3.0000000000000004e-01 +4.1195222081161254e-01 -9.0827187652819366e-04 -2.6996908411593351e-01 +3.2595336785422311e+00 +1.7719815140871417e+03 +1.1507196682919230e+05 -8.5510122687797062e+06 
-4.0000000000000002e-01 +4.1195228615491525e-01 -9.1655281770133010e-04 -2.7286853604088485e-01 +3.4121742919453908e+00 +1.8148593195073527e+03 +1.1422290317406434e+05 -8.7311223537832610e+06 
-5.0000000000000000e-01 +4.1195235034870298e-01 -9.2549181457631056e-04 -2.7576273395010148e-01 +3.5717120687209243e+00 +1.8576208729479163e+03 +1.1334938825246168e+05 -8.9102742583523355e+06 
-5.9999999999999998e-01 +4.1195241314461917e-01 -9.3496864000432807e-04 -2.7862735604752892e-01 +3.7367333527880033e+00 +1.8999311361895225e+03 +1.1245680347376208e+05 -9.0873158761742134e+06 
-6.9999999999999996e-01 +4.1195247429430065e-01 -9.4486305526589722e-04 -2.8143808103152795e-01 +3.9058241539350576e+00 +1.9414550907573853e+03 +1.1155053217620894e+05 -9.2610952323053535e+06 
-7.9999999999999993e-01 +4.1195253354939504e-01 -9.5505480604798540e-04 -2.8417058910118698e-01 +4.0775700415836029e+00 +1.9818577512263898e+03 +1.1063596014629303e+05 -9.4304605346021000e+06 
-8.9999999999999991e-01 +4.1195259066157791e-01 -9.6542361601239808e-04 -2.8680056355963607e-01 +4.2505559682554850e+00 +2.0208041946791989e+03 +1.0971847655526742e+05 -9.5942603132823296e+06 
-9.9999999999999989e-01 +4.1195264538255344e-01 -9.7584918845942611e-04 -2.8930368983857613e-01 +4.4233663244382599e+00 +2.0579595372151912e+03 +1.0880347355620218e+05 -9.7513432998468690e+06 
-1.0999999999999999e+00 +4.1195269746408664e-01 -9.8621119590253819e-04 -2.9165565859016612e-01 +4.5945846487291693e+00 +2.0929889882735115e+03 +1.0789634786398828e+05 -9.9005586757452283e+06 
-1.2000000000000000e+00 +4.1195274665797088e-01 -9.9638928056296986e-04 -2.9383216096989256e-01 +4.7627936479861077e+00 +2.1255577598157370e+03 +1.0700250056065529e+05 -1.0040755642975245e+07 
-1.3000000000000000e+00 +4.1195279271610052e-01 -1.0062630489014192e-03 -2.9580889659228154e-01 +4.9265750486461890e+00 +2.1553312108177556e+03 +1.0612733786527719e+05 -1.0170784092854753e+07 
-1.4000000000000001e+00 +4.1195283539042693e-01 -1.0157120673562321e-03 -2.9756156750885465e-01 +5.0845094850134949e+00 +2.1819747320735396e+03 +1.0527627168252709e+05 -1.0289494061448295e+07 
-1.5000000000000002e+00 +4.1195287443300715e-01 -1.0246158584181133e-03 -2.9906588305988174e-01 +5.2351763916309677e+00 +2.2051538335370524e+03 +1.0445472014623921e+05 -1.0395736135537751e+07 
-1.6000000000000003e+00 +4.1195290959599451e-01 -1.0328538968693980e-03 -3.0029755798160301e-01 +5.3771539036563496e+00 +2.2245341038642305e+03 +1.0366810810806768e+05 -1.0488361249584464e+07 
-1.7000000000000004e+00 +4.1195294063165316e-01 -1.0403056063905743e-03 -3.0123231331926953e-01 +5.5090187668566983e+00 +2.2397812250792358e+03 +1.0292186756751598e+05 -1.0566220753410706e+07 
-1.8000000000000005e+00 +4.1195296729238590e-01 -1.0468503561045441e-03 -3.0184587918887451e-01 +5.6293462498857352e+00 +2.2505610219045511e+03 +1.0222143808795266e+05 -1.0628166639036916e+07 
-1.9000000000000006e+00 +4.1195298933071905e-01 -1.0523674525155175e-03 -3.0211399177387005e-01 +5.7367099143327076e+00 +2.2565394002969197e+03 +1.0157226804721694e+05 -1.0673051242646005e+07 
-2.0000000000000004e+00 +4.1195300649935263e-01 -1.0567361441026321e-03 -3.0201239897056859e-01 +5.8296820135636782e+00 +2.2573824332436161e+03 +1.0097980919364565e+05 -1.0699727366586749e+07 
-2.1000000000000005e+00 +4.1195301862198463e-01 -1.0598660827735766e-03 -3.0152569631949588e-01 +5.9073155523429879e+00 +2.2528874621301943e+03 +1.0044706766264529e+05 -1.0707508095825639e+07 
-2.2000000000000006e+00 +4.1195302578462906e-01 -1.0618016212925925e-03 -3.0067753266191971e-01 +5.9702889258422429e+00 +2.2434089181480717e+03 +9.9971412817428296e+04 -1.0697647537008438e+07 
-2.3000000000000007e+00 +4.1195302813713969e-01 -1.0626245613267686e-03 -2.9950291752782410e-01 +6.0195702014739902e+00 +2.2294541844516721e+03 +9.9550106015359721e+04 -1.0671904562426899e+07 
-2.4000000000000008e+00 +4.1195302582938109e-01 -1.0624167125369184e-03 -2.9803686367115539e-01 +6.0561266795103341e+00 +2.2115305863681215e+03 +9.9180415803405485e+04 -1.0632037356417043e+07 
-2.5000000000000009e+00 +4.1195301901121750e-01 -1.0612599122704004e-03 -2.9631438500794299e-01 +6.0809265346273866e+00 +2.1901454816279711e+03 +9.8859606118694282e+04 -1.0579804253039109e+07 
-2.6000000000000010e+00 +4.1195300783247674e-01 -1.0592360336697758e-03 -2.9437049258941073e-01 +6.0949390552767628e+00 +2.1658061845505567e+03 +9.8584934994662806e+04 -1.0516963371814944e+07 
-2.7000000000000011e+00 +4.1195299244298283e-01 -1.0564269873594261e-03 -2.9224019952516006e-01 +6.0991346898792944e+00 +2.1390200648916771e+03 +9.8353654398224855e+04 -1.0445273094991064e+07 
-2.8000000000000012e+00 +4.1195297299250383e-01 -1.0529147322023212e-03 -2.8995851480887980e-01 +6.0944853638007421e+00 +2.1102944315693380e+03 +9.8163008483101934e+04 -1.0366491513726963e+07 
-2.9000000000000012e+00 +4.1195294963078238e-01 -1.0487812784539963e-03 -2.8756044766623129e-01 +6.0819645679290453e+00 +2.0801366163695025e+03 +9.8010233185295612e+04 -1.0282376820007671e+07 
-3.0000000000000013e+00 +4.1195292250750165e-01 -1.0441086951649813e-03 -2.8508100423891042e-01 +6.0625475748524718e+00 +2.0490539173504349e+03 +9.7892555067479960e+04 -1.0194687051832460e+07 
-3.1000000000000014e+00 +4.1195289177228095e-01 -1.0389791156380109e-03 -2.8255518702546784e-01 +6.0372115969178397e+00 +2.0175535854433274e+03 +9.7807190504888422e+04 -1.0105180014564458e+07 
-3.2000000000000015e+00 +4.1195285757468642e-01 -1.0334747445229274e-03 -2.8001799736076699e-01 +6.0069359960094308e+00 +1.9861428788651151e+03 +9.7751344560209749e+04 -1.0015613552833902e+07 
-3.3000000000000016e+00 +4.1195282006419037e-01 -1.0276778628596380e-03 -2.7750443057531043e-01 +5.9727024254622698e+00 +1.9553289711121124e+03 +9.7722210277336824e+04 -9.9277451092498768e+06 
-3.4000000000000017e+00 +4.1195277939019381e-01 -1.0216708349978401e-03 -2.7504947933100232e-01 +5.9354950365617709e+00 +1.9256190160669814e+03 +9.7716967564200342e+04 -9.8433320304091983e+06 
-3.5000000000000018e+00 +4.1195273570199920e-01 -1.0155361146548328e-03 -2.7268813104898287e-01 +5.8963006498055801e+00 +1.8975201044199919e+03 +9.7732782321989289e+04 -9.7641313694351148e+06 
-3.6000000000000019e+00 +4.1195268914880889e-01 -1.0093562498895022e-03 -2.7045536814414856e-01 +5.8561089036330314e+00 +1.8715392684145102e+03 +9.7766805663820982e+04 -9.6918999027369805e+06 
-3.7000000000000020e+00 +4.1195263987972119e-01 -1.0032138918412180e-03 -2.6838616794852660e-01 +5.8159125081946703e+00 +1.8481834831522071e+03 +9.7816172554370729e+04 -9.6283941384550463e+06 
-3.8000000000000020e+00 +4.1195258804370982e-01 -9.9719179763506946e-04 -2.6651550108179728e-01 +5.7767073286321953e+00 +1.8279596392204592e+03 +9.7878001422926012e+04 -9.5753701893310249e+06 
-3.9000000000000021e+00 +4.1195253378962243e-01 -9.9137283984730251e-04 -2.6487833151346646e-01 +5.7394926596788629e+00 +1.8113745455517385e+03 +9.7949392679094191e+04 -9.5345837857837379e+06 
-4.0000000000000018e+00 +4.1195247726591472e-01 -9.8584005702159988e-04 -2.6350956792825725e-01 +5.7052688561573444e+00 +1.7989343484954727e+03 +9.8027457248774881e+04 -9.5077892096132711e+06 
-4.1000000000000014e+00 +4.1195241861696069e-01 -9.8067834585839099e-04 -2.6243371754176842e-01 +5.6748823137504640e+00 +1.7909761223304497e+03 +9.8110844551821239e+04 -9.4960941727447603e+06 
-4.2000000000000011e+00 +4.1195235801489272e-01 -9.7590980884218687e-04 -2.6163659695892127e-01 +5.6484250870653279e+00 +1.7872121060322254e+03 +9.8199730524002982e+04 -9.4982520264730193e+06 
-4.3000000000000007e+00 +4.1195229563466856e-01 -9.7152320204227675e-04 -2.6109127983745783e-01 +5.6258941313966018e+00 +1.7871686158348707e+03 +9.8292333587620931e+04 -9.5124164758422486e+06 
-4.4000000000000004e+00 +4.1195223165100237e-01 -9.6750731145287580e-04 -2.6077079547003279e-01 +5.6072961874395393e+00 +1.7903721149044713e+03 +9.8386779112474280e+04 -9.5367465842549261e+06 
-4.5000000000000000e+00 +4.1195216623861314e-01 -9.6385087996614242e-04 -2.6064817275081514e-01 +5.5926363746342185e+00 +1.7963490495570034e+03 +9.8481202016388925e+04 -9.5694013627215065e+06 
-4.5999999999999996e+00 +4.1195209957220585e-01 -9.6054259730225203e-04 -2.6069643786134578e-01 +5.5819178759694870e+00 +1.8046258061512758e+03 +9.8573748561958419e+04 -9.6085395736722499e+06 
-4.6999999999999993e+00 +4.1195203182647072e-01 -9.5757110181048587e-04 -2.6088861388878171e-01 +5.5751419749391884e+00 +1.8147287003709705e+03 +9.8662576105363711e+04 -9.6523196752432939e+06 
-4.7999999999999989e+00 +4.1195196317610749e-01 -9.5492497292939342e-04 -2.6119772378442030e-01 +5.5723078051063908e+00 +1.8261840343880590e+03 +9.8745854540983782e+04 -9.6989000995505080e+06 
-4.8999999999999986e+00 +4.1195189379578873e-01 -9.5259272682801806e-04 -2.6159678568706257e-01 +5.5734122037700544e+00 +1.8385180052845301e+03 +9.8821767121254816e+04 -9.7464388159446958e+06 
-4.9999999999999982e+00 +4.1195182386019269e-01 -9.5056281481883541e-04 -2.6205881677845760e-01 +5.5784496414689615e+00 +1.8512567779607632e+03 +9.8888510842826785e+04 -9.7930936811694875e+06 
-5.0999999999999979e+00 +4.1195175354399477e-01 -9.4882361635465374e-04 -2.6255683208461056e-01 +5.5874119974148515e+00 +1.8639264608090398e+03 +9.8944297721638563e+04 -9.8370223241657168e+06 
-5.1999999999999975e+00 +4.1195168302186569e-01 -9.4736343656484439e-04 -2.6306384399914429e-01 +5.6002884611929025e+00 +1.8760530934530909e+03 +9.8987355347787583e+04 -9.8763820835186243e+06 
-5.2999999999999972e+00 +4.1195161246845979e-01 -9.4617050065981176e-04 -2.6355286093691177e-01 +5.6170653528873737e+00 +1.8871626240280091e+03 +9.9015927890390405e+04 -9.9093299138941448e+06 
-5.3999999999999968e+00 +4.1195154205844126e-01 -9.4523295175405876e-04 -2.6399689019711459e-01 +5.6377260289651048e+00 +1.8967809582409634e+03 +9.9028276638667128e+04 -9.9340226073013134e+06 
-5.4999999999999964e+00 +4.1195147196646520e-01 -9.4453884437053299e-04 -2.6436893557135288e-01 +5.6622506768047280e+00 +1.9044339152335790e+03 +9.9022681154584003e+04 -9.9486165930887312e+06 
-5.5999999999999961e+00 +4.1195140236719041e-01 -9.4407614177586944e-04 -2.6464199863122301e-01 +5.6906162114783276e+00 +1.9096472480634391e+03 +9.8997439853851087e+04 -9.9512680283790752e+06 
-5.6999999999999957e+00 +4.1195133343526369e-01 -9.4383271167818765e-04 -2.6478907678565339e-01 +5.7227961239668623e+00 +1.9119466089062264e+03 +9.8950870873277192e+04 -9.9401326450728290e+06 
-5.7999999999999954e+00 +4.1195126534534876e-01 -9.4379632086074433e-04 -2.6478316682642611e-01 +5.7587603106362826e+00 +1.9108576124412368e+03 +9.8881313010472164e+04 -9.9133660412018541e+06 
-5.8999999999999950e+00 +4.1195119827209353e-01 -9.4395463232582527e-04 -2.6459726038318476e-01 +5.7984749579294119e+00 +1.9059057493446214e+03 +9.8787126395627405e+04 -9.8691232786122914e+06 
-5.9999999999999947e+00 +4.1195113239080722e-01 -9.4429464319984694e-04 -2.6420452813947498e-01 +5.8418897144482544e+00 +1.8966201916226000e+03 +9.8666740292257979e+04 -9.8055758905537985e+06 
-6.0999999999999943e+00 +4.1195106783120161e-01 -9.4476443934455353e-04 -2.6358721358899018e-01 +5.8881128937971940e+00 +1.8827265665817097e+03 +9.8522439425928198e+04 -9.7218084163740892e+06 
-6.1999999999999940e+00 +4.1195100456490291e-01 -9.4530423796051273e-04 -2.6275643692271455e-01 +5.9355576710026119e+00 +1.8645314213874992e+03 +9.8362055739975563e+04 -9.6194532063997015e+06 
-6.2999999999999936e+00 +4.1195094254924175e-01 -9.4588616999822779e-04 -2.6173613641465970e-01 +5.9828162145805504e+00 +1.8425605010543281e+03 +9.8195152525038284e+04 -9.5009460369879622e+06 
-6.3999999999999932e+00 +4.1195088174243866e-01 -9.4648246887010898e-04 -2.6055043686396212e-01 +6.0284628544506642e+00 +1.8173411988854753e+03 +9.8031516545550141e+04 -9.3687175203601029e+06 
-6.4999999999999929e+00 +4.1195082210285910e-01 -9.4706540798749955e-04 -2.5922348766319608e-01 +6.0710739115019061e+00 +1.7894013767710960e+03 +9.7880921242353055e+04 -9.2252003293188959e+06 
-6.5999999999999925e+00 +4.1195076358900479e-01 -9.4760729892197186e-04 -2.5777946186674378e-01 +6.1092276848991496e+00 +1.7592693470781326e+03 +9.7753126725213471e+04 -9.0728291044259332e+06 
-6.6999999999999922e+00 +4.1195070615953866e-01 -9.4808050129069029e-04 -2.5624255971578280e-01 +6.1415047814868453e+00 +1.7274739401212419e+03 +9.7657877781679228e+04 -8.9140407676623799e+06 
-6.7999999999999918e+00 +4.1195064977325563e-01 -9.4845741484437813e-04 -2.5463700507249476e-01 +6.1664879155396379e+00 +1.6945444370383491e+03 +9.7604904977675309e+04 -8.7512742004804052e+06 
-6.8999999999999915e+00 +4.1195059438913895e-01 -9.4871049088255722e-04 -2.5298705269844063e-01 +6.1827622873550991e+00 +1.6610107065163179e+03 +9.7603922374859569e+04 -8.5869708796900548e+06 
-6.9999999999999911e+00 +4.1195053996630815e-01 -9.4881222753944122e-04 -2.5131698196886959e-01 +6.1889154822153403e+00 +1.6274030871836085e+03 +9.7664628038009687e+04 -8.4235743198124524e+06 
-7.0999999999999908e+00 +4.1195048646406651e-01 -9.4873517673744307e-04 -2.4965110331893689e-01 +6.1835377105699072e+00 +1.5942525106045744e+03 +9.7796702576899799e+04 -8.2635306490428261e+06 
-7.1999999999999904e+00 +4.1195043384189162e-01 -9.4845194282605855e-04 -2.4801375685020918e-01 +6.1652218048304848e+00 +1.5620904729525898e+03 +9.8009809090066192e+04 -8.1092884649793478e+06 
-7.2999999999999901e+00 +4.1195038205943496e-01 -9.4793518671072166e-04 -2.4642931279391284e-01 +6.1325633879501149e+00 +1.5314490450473213e+03 +9.8313592085057928e+04 -7.9632988778198427e+06 
-7.3999999999999897e+00 +4.1195033107654050e-01 -9.4715762740065304e-04 -2.4492217401287170e-01 +6.0841609416100280e+00 +1.5028609207350146e+03 +9.8717677052698709e+04 -7.8280157362403590e+06 
-7.4999999999999893e+00 +4.1195028085323560e-01 -9.4609204416189131e-04 -2.4351677501729049e-01 +6.0186159227908194e+00 +1.4768593968933128e+03 +9.9231669670608753e+04 -7.7058955220032884e+06 
-7.5999999999999890e+00 +4.1195023134974412e-01 -9.4471127888755464e-04 -2.4223758384907784e-01 +5.9345328608152883e+00 +1.4539784095612292e+03 +9.9865155195713509e+04 -7.5993975157816047e+06 
-7.6999999999999886e+00 +4.1195018252650101e-01 -9.4298823746889087e-04 -2.4110910435928254e-01 +5.8305194408645349e+00 +1.4347525793276186e+03 +1.0062769789100853e+05 -7.5109840108747957e+06 
-7.7999999999999883e+00 +4.1195013434413053e-01 -9.4089589332622427e-04 -2.4015587328834195e-01 +5.7051866477252480e+00 +1.4197171530505191e+03 +1.0152884010801636e+05 -7.4431200240587080e+06 
-7.8999999999999879e+00 +4.1195008676346856e-01 -9.3840728784211043e-04 -2.3940246366051185e-01 +5.5571488110931515e+00 +1.4094080709284185e+03 +1.0257810196695630e+05 -7.3982736133769965e+06 
-7.9999999999999876e+00 +4.1195003974552441e-01 -9.3549758286584281e-04 -2.3887323142152997e-01 +5.3851217459498928e+00 +1.4043502671303736e+03 +1.0378442220266644e+05 -7.3788478247820018e+06 
-8.0999999999999872e+00 +4.1194999331221016e-01 -9.3218984121298484e-04 -2.3859072356082012e-01 +5.1897326520924940e+00 +1.4049158823113453e+03 +1.0514556955277476e+05 -7.3862744496269682e+06 
-8.1999999999999869e+00 +4.1194994751855724e-01 -9.2853028471658516e-04 -2.3855893290714891e-01 +4.9730874786290551e+00 +1.4110278875568492e+03 +1.0664886088723174e+05 -7.4197734865063783e+06 
-8.2999999999999865e+00 +4.1194990237238593e-01 -9.2453407072295903e-04 -2.3876744911879322e-01 +4.7369443708219956e+00 +1.4223466693274268e+03 +1.0828068697456724e+05 -7.4775416135339057e+06 
-8.3999999999999861e+00 +4.1194985787957733e-01 -9.2021591822535474e-04 -2.3920543060098376e-01 +4.4830826121615095e+00 +1.4385264889692644e+03 +1.1002701844728600e+05 -7.5577737464068932e+06 
-8.4999999999999858e+00 +4.1194981404580211e-01 -9.1559057507604265e-04 -2.3986199022988391e-01 +4.2132812159239030e+00 +1.4592206348186241e+03 +1.1187383032817802e+05 -7.6586601923263278e+06 
-8.5999999999999854e+00 +4.1194977087650475e-01 -9.1067281953553835e-04 -2.4072619249627716e-01 +3.9293189371097696e+00 +1.4840813632941270e+03 +1.1380710204718231e+05 -7.7783863701610696e+06 
-8.6999999999999851e+00 +4.1194972837693722e-01 -9.0547745885842545e-04 -2.4178705753675997e-01 +3.6329741856904501e+00 +1.5127599743728254e+03 +1.1581281805779756e+05 -7.9151331723125707e+06 
-8.7999999999999847e+00 +4.1194968655209202e-01 -9.0001932992060923e-04 -2.4303355156906334e-01 +3.3260250110663154e+00 +1.5449066243086806e+03 +1.1787696800841435e+05 -8.0670760757357366e+06 
-8.8999999999999844e+00 +4.1194964540674645e-01 -8.9431330327933891e-04 -2.4445459240854031e-01 +3.0102491705452223e+00 +1.5801704310735299e+03 +1.1998554647688434e+05 -8.2323856509706797e+06 
-8.9999999999999840e+00 +4.1194960494542870e-01 -8.8837427719668936e-04 -2.4603904411187486e-01 +2.6874239278542644e+00 +1.6181993650618233e+03 +1.2212455419933161e+05 -8.4092270346377306e+06 
-9.0999999999999837e+00 +4.1194956517241887e-01 -8.8221718372413999e-04 -2.4777571666940534e-01 +2.3593261760847790e+00 +1.6586402436026317e+03 +1.2427999750041508e+05 -8.5957599153607711e+06 
-9.1999999999999833e+00 +4.1194952609174856e-01 -8.7585698628855273e-04 -2.4965336568333393e-01 +2.0277323351757812e+00 +1.7011387217529229e+03 +1.2643788896381101e+05 -8.7901384902411215e+06 
-9.2999999999999829e+00 +4.1194948770716677e-01 -8.6930868018837335e-04 -2.5166068675508252e-01 +1.6944183242242681e+00 +1.7453391800344377e+03 +1.2858424769923330e+05 -8.9905109296666738e+06 
-9.3999999999999826e+00 +4.1194945002216915e-01 -8.6258729549323876e-04 -2.5378631927373918e-01 +1.3611596018976737e+00 +1.7908847966802425e+03 +1.3070509922213094e+05 -9.1950197293731645e+06 
-9.4999999999999822e+00 +4.1194941303996319e-01 -8.5570789395787781e-04 -2.5601884100302719e-01 +1.0297310378706859e+00 +1.8374174400558445e+03 +1.3278647629202917e+05 -9.4018011983257290e+06 
-9.5999999999999819e+00 +4.1194937676347076e-01 -8.4868557147495217e-04 -2.5834676795871409e-01 +7.0190694408268284e-01 +1.8845776633275382e+03 +1.3481441883271100e+05 -9.6089854351396374e+06 
-9.6999999999999815e+00 +4.1194934119533549e-01 -8.4153545783830733e-04 -2.6075855460783620e-01 +3.7946102759523009e-01 +1.9320047055468372e+03 +1.3677497430809151e+05 -9.8146963361634817e+06 
-9.7999999999999812e+00 +4.1194930633787891e-01 -8.3427271690545096e-04 -2.6324258807014211e-01 +6.4166346100276425e-02 +1.9793363803735458e+03 +1.3865419810366083e+05 -1.0017051076367859e+07 
-9.8999999999999808e+00 +4.1194927219314048e-01 -8.2691254803025287e-04 -2.6578719209430884e-01 -2.4220468319400090e-01 +2.0262091452060747e+03 +1.4043815355818797e+05 -1.0214160427378314e+07 
-9.9999999999999805e+00 +4.1194923876057865e-01 -8.1946787976042818e-04 -2.6838053061628175e-01 -5.3803006019904320e-01 +2.0722677781091120e+03 +1.4211397058635470e+05 -1.0404211169195995e+07 
-1.0099999999999980e+01 +4.1194920596121370e-01 -8.1193316009752555e-04 -2.7100458678279044e-01 -8.2297742748963754e-01 +2.1171491129197070e+03 +1.4367771277002330e+05 -1.0585667480429340e+07 
