# field on trajectory
# s[mm] rx[mm] ry[mm] rz[mm] bx[T] by[T] bz[T]
0.0000000000000000e+00 +4.6467000000000001e+00 +0.0000000000000000e+00 +0.0000000000000000e+00 +1.6505352252341652e-02 -3.0358923671770410e-01 +2.1040508095019504e-03
-1.0000000000000001e-01 +4.6466969661726782e+00 +0.0000000000000000e+00 -9.9999999938639270e-02 +1.6505321990035911e-02 -3.0358923624553519e-01 +2.1040725032956094e-03
-2.0000000000000001e-01 +4.6466878646907270e+00 +0.0000000000000000e+00 -1.9999999950911423e-01 +1.6505289800436630e-02 -3.0358923668261384e-01 +2.1040926301906116e-03
-3.0000000000000004e-01 +4.6466726955541722e+00 +0.0000000000000000e+00 -2.9999999834326052e-01 +1.6505256306861414e-02 -3.0358923768472479e-01 +2.1041112987233795e-03
-4.0000000000000002e-01 +4.6466514587630492e+00 +0.0000000000000000e+00 -3.9999999607291381e-01 +1.6505222132623471e-02 -3.0358923890760431e-01 +2.1041286174283804e-03
-5.0000000000000000e-01 +4.6466241543174132e+00 +0.0000000000000000e+00 -4.9999999232990983e-01 +1.6505187901036677e-02 -3.0358924000695287e-01 +2.1041446948347792e-03
-5.9999999999999998e-01 +4.6465907822173431e+00 +0.0000000000000000e+00 -5.9999998674608412e-01 +1.6505154235420583e-02 -3.0358924063844733e-01 +2.1041596394630732e-03
-6.9999999999999996e-01 +4.6465513424629492e+00 +0.0000000000000000e+00 -6.9999997895327248e-01 +1.6505121759105370e-02 -3.0358924045775199e-01 +2.1041735598217345e-03
-7.9999999999999993e-01 +4.6465058350543815e+00 +0.0000000000000000e+00 -7.9999996858331057e-01 +1.6505091095436873e-02 -3.0358923912053065e-01 +2.1041865644038506e-03
-8.9999999999999991e-01 +4.6464542599918346e+00 +0.0000000000000000e+00 -8.9999995526803411e-01 +1.6505062867781566e-02 -3.0358923628245899e-01 +2.1041987616837701e-03
-9.9999999999999989e-01 +4.6463966172755562e+00 +0.0000000000000000e+00 -9.9999993863927883e-01 +1.6505037699531572e-02 -3.0358923159923590e-01 +2.1042102601137418e-03
-1.0999999999999999e+00 +4.6463329069058519e+00 +0.0000000000000000e+00 -1.0999999183288804e+00 +1.6505016214109637e-02 -3.0358922472659489e-01 +2.1042211681205516e-03
-1.2000000000000000e+00 +4.6462631288830947e+00 +0.0000000000000000e+00 -1.1999998939686749e+00 +1.6504999034974106e-02 -3.0358921532031674e-01 +2.1042315941021683e-03
-1.3000000000000000e+00 +4.6461872832077296e+00 +0.0000000000000000e+00 -1.2999998651904983e+00 +1.6504986785623954e-02 -3.0358920303624148e-01 +2.1042416464243830e-03
-1.4000000000000001e+00 +4.6461053698802823e+00 +0.0000000000000000e+00 -1.3999998316261864e+00 +1.6504980089603716e-02 -3.0358918753027919e-01 +2.1042514334174436e-03
-1.5000000000000002e+00 +4.6460173889013650e+00 +0.0000000000000000e+00 -1.4999997929075755e+00 +1.6504979570508477e-02 -3.0358916845842249e-01 +2.1042610633726969e-03
-1.6000000000000003e+00 +4.6459233402716826e+00 +0.0000000000000000e+00 -1.5999997486665016e+00 +1.6504985851988892e-02 -3.0358914547675875e-01 +2.1042706445392250e-03
-1.7000000000000004e+00 +4.6458232239920418e+00 +0.0000000000000000e+00 -1.6999996985348016e+00 +1.6504999557756046e-02 -3.0358911824148094e-01 +2.1042802851204763e-03
-1.8000000000000005e+00 +4.6457170400633565e+00 +0.0000000000000000e+00 -1.7999996421443119e+00 +1.6505021311586539e-02 -3.0358908640890070e-01 +2.1042900932709083e-03
-1.9000000000000006e+00 +4.6456047884866543e+00 +0.0000000000000000e+00 -1.8999995791268693e+00 +1.6505051737327320e-02 -3.0358904963545913e-01 +2.1043001770926118e-03
-2.0000000000000004e+00 +4.6454864692630835e+00 +0.0000000000000000e+00 -1.9999995091143112e+00 +1.6505091458900736e-02 -3.0358900757773921e-01 +2.1043106446319432e-03
-2.1000000000000005e+00 +4.6453620823939206e+00 +0.0000000000000000e+00 -2.0999994317384751e+00 +1.6505140852251025e-02 -3.0358896003449537e-01 +2.1043215884752730e-03
-2.2000000000000006e+00 +4.6452316278805732e+00 +0.0000000000000000e+00 -2.1999993466311984e+00 +1.6505199301121473e-02 -3.0358890737266558e-01 +2.1043330395679812e-03
-2.3000000000000007e+00 +4.6450951057245735e+00 +0.0000000000000000e+00 -2.2999992534243194e+00 +1.6505265941169169e-02 -3.0358885010121006e-01 +2.1043450134636656e-03
-2.4000000000000008e+00 +4.6449525159275682e+00 +0.0000000000000000e+00 -2.3999991517496766e+00 +1.6505339908013540e-02 -3.0358878872906586e-01 +2.1043575257371967e-03
-2.5000000000000009e+00 +4.6448038584913078e+00 +0.0000000000000000e+00 -2.4999990412391084e+00 +1.6505420337227995e-02 -3.0358872376513746e-01 +2.1043705919903924e-03
-2.6000000000000010e+00 +4.6446491334176372e+00 +0.0000000000000000e+00 -2.5999989215244543e+00 +1.6505506364331599e-02 -3.0358865571828764e-01 +2.1043842278577010e-03
-2.7000000000000011e+00 +4.6444883407084845e+00 +0.0000000000000000e+00 -2.6999987922375541e+00 +1.6505597124780773e-02 -3.0358858509732733e-01 +2.1043984490118754e-03
-2.8000000000000012e+00 +4.6443214803658535e+00 +0.0000000000000000e+00 -2.7999986530102472e+00 +1.6505691753960966e-02 -3.0358851241100754e-01 +2.1044132711696521e-03
-2.9000000000000012e+00 +4.6441485523918091e+00 +0.0000000000000000e+00 -2.8999985034743743e+00 +1.6505789387178314e-02 -3.0358843816800829e-01 +2.1044287100974316e-03
-3.0000000000000013e+00 +4.6439695567884716e+00 +0.0000000000000000e+00 -2.9999983432617756e+00 +1.6505889159651430e-02 -3.0358836287693119e-01 +2.1044447816169535e-03
-3.1000000000000014e+00 +4.6437844935580044e+00 +0.0000000000000000e+00 -3.0999981720042924e+00 +1.6505990206503000e-02 -3.0358828704628804e-01 +2.1044615016109760e-03
-3.2000000000000015e+00 +4.6435933627026031e+00 +0.0000000000000000e+00 -3.1999979893337658e+00 +1.6506091662751569e-02 -3.0358821118449281e-01 +2.1044788860289498e-03
-3.3000000000000016e+00 +4.6433961642244865e+00 +0.0000000000000000e+00 -3.2999977948820378e+00 +1.6506192663303259e-02 -3.0358813579985156e-01 +2.1044969508927044e-03
-3.4000000000000017e+00 +4.6431928981258865e+00 +0.0000000000000000e+00 -3.3999975882809501e+00 +1.6506292342943461e-02 -3.0358806140055367e-01 +2.1045157123021135e-03
-3.5000000000000018e+00 +4.6429835644090378e+00 +0.0000000000000000e+00 -3.4999973691623447e+00 +1.6506389836328607e-02 -3.0358798849466151e-01 +2.1045351864407841e-03
-3.6000000000000019e+00 +4.6427681630761670e+00 +0.0000000000000000e+00 -3.5999971371580646e+00 +1.6506484277977920e-02 -3.0358791759010190e-01 +2.1045553895817260e-03
-3.7000000000000020e+00 +4.6425466941294840e+00 +0.0000000000000000e+00 -3.6999968918999522e+00 +1.6506574802265188e-02 -3.0358784919465570e-01 +2.1045763380930322e-03
-3.8000000000000020e+00 +4.6423191575711700e+00 +0.0000000000000000e+00 -3.7999966330198500e+00 +1.6506660543410500e-02 -3.0358778381594992e-01 +2.1045980484435587e-03
-3.9000000000000021e+00 +4.6420855534033683e+00 +0.0000000000000000e+00 -3.8999963601496015e+00 +1.6506740635472073e-02 -3.0358772196144646e-01 +2.1046205372085942e-03
-4.0000000000000018e+00 +4.6418458816281749e+00 +0.0000000000000000e+00 -3.9999960729210500e+00 +1.6506814212338013e-02 -3.0358766413843408e-01 +2.1046438210755481e-03
-4.1000000000000014e+00 +4.6416001422476265e+00 +0.0000000000000000e+00 -4.0999957709660384e+00 +1.6506880574892444e-02 -3.0358761071200691e-01 +2.1046679103195139e-03
-4.2000000000000011e+00 +4.6413483352636966e+00 +0.0000000000000000e+00 -4.1999954539164097e+00 +1.6506939692682489e-02 -3.0358756147903665e-01 +2.1046927891617715e-03
-4.3000000000000007e+00 +4.6410904606782966e+00 +0.0000000000000000e+00 -4.2999951214040077e+00 +1.6506991702482134e-02 -3.0358751609437296e-01 +2.1047184352687709e-03
-4.4000000000000004e+00 +4.6408265184932835e+00 +0.0000000000000000e+00 -4.3999947730606754e+00 +1.6507036741101294e-02 -3.0358747421291260e-01 +2.1047448262667880e-03
-4.5000000000000000e+00 +4.6405565087104668e+00 +0.0000000000000000e+00 -4.4999944085182566e+00 +1.6507074945390821e-02 -3.0358743548960393e-01 +2.1047719397378982e-03
-4.5999999999999996e+00 +4.6402804313316146e+00 +0.0000000000000000e+00 -4.5999940274085951e+00 +1.6507106452247518e-02 -3.0358739957945208e-01 +2.1047997532159502e-03
-4.6999999999999993e+00 +4.6399982863584626e+00 +0.0000000000000000e+00 -4.6999936293635338e+00 +1.6507131398619115e-02 -3.0358736613752335e-01 +2.1048282441825513e-03
-4.7999999999999989e+00 +4.6397100737927177e+00 +0.0000000000000000e+00 -4.7999932140149157e+00 +1.6507149921509340e-02 -3.0358733481895128e-01 +2.1048573900630516e-03
-4.8999999999999986e+00 +4.6394157936360676e+00 +0.0000000000000000e+00 -4.8999927809945856e+00 +1.6507162157982900e-02 -3.0358730527893973e-01 +2.1048871682225264e-03
-4.9999999999999982e+00 +4.6391154458901864e+00 +0.0000000000000000e+00 -4.9999923299343862e+00 +1.6507168245170466e-02 -3.0358727717276940e-01 +2.1049175559617697e-03
-5.0999999999999979e+00 +4.6388090305567422e+00 +0.0000000000000000e+00 -5.0999918604661616e+00 +1.6507168320273716e-02 -3.0358725015580185e-01 +2.1049485305132919e-03
-5.1999999999999975e+00 +4.6384965476374047e+00 +0.0000000000000000e+00 -5.1999913722217554e+00 +1.6507162520570291e-02 -3.0358722388348464e-01 +2.1049800690373095e-03
-5.2999999999999972e+00 +4.6381779971338490e+00 +0.0000000000000000e+00 -5.2999908648330116e+00 +1.6507150983418845e-02 -3.0358719801135614e-01 +2.1050121486177534e-03
-5.3999999999999968e+00 +4.6378533790477654e+00 +0.0000000000000000e+00 -5.3999903379317749e+00 +1.6507133846263990e-02 -3.0358717219505021e-01 +2.1050447462582721e-03
-5.4999999999999964e+00 +4.6375226933808662e+00 +0.0000000000000000e+00 -5.4999897911498890e+00 +1.6507111246641348e-02 -3.0358714609030168e-01 +2.1050778388782359e-03
-5.5999999999999961e+00 +4.6371859401348905e+00 +0.0000000000000000e+00 -5.5999892241191978e+00 +1.6507083322182474e-02 -3.0358711935295063e-01 +2.1051114033087590e-03
-5.6999999999999957e+00 +4.6368431193116137e+00 +0.0000000000000000e+00 -5.6999886364715469e+00 +1.6507050210619881e-02 -3.0358709163894698e-01 +2.1051454162887093e-03
-5.7999999999999954e+00 +4.6364942309128523e+00 +0.0000000000000000e+00 -5.7999880278387810e+00 +1.6507012049792050e-02 -3.0358706260435658e-01 +2.1051798544607357e-03
-5.8999999999999950e+00 +4.6361392749404713e+00 +0.0000000000000000e+00 -5.8999873978527448e+00 +1.6506968977648348e-02 -3.0358703190536468e-01 +2.1052146943672891e-03
-5.9999999999999947e+00 +4.6357782513963919e+00 +0.0000000000000000e+00 -5.9999867461452840e+00 +1.6506921132254035e-02 -3.0358699919828130e-01 +2.1052499124466595e-03
-6.0999999999999943e+00 +4.6354111602825974e+00 +0.0000000000000000e+00 -6.0999860723482451e+00 +1.6506868751227345e-02 -3.0358696422300346e-01 +2.1052854626768484e-03
-6.1999999999999940e+00 +4.6350380016011377e+00 +0.0000000000000000e+00 -6.1999853760934736e+00 +1.6506812470187780e-02 -3.0358692705344337e-01 +2.1053212095488759e-03
-6.2999999999999936e+00 +4.6346587753541302e+00 +0.0000000000000000e+00 -6.2999846570128160e+00 +1.6506753024365665e-02 -3.0358688784695353e-01 +2.1053569952620903e-03
-6.3999999999999932e+00 +4.6342734815437536e+00 +0.0000000000000000e+00 -6.3999839147381197e+00 +1.6506691149091791e-02 -3.0358684676078013e-01 +2.1053926621154243e-03
-6.4999999999999929e+00 +4.6338821201722471e+00 +0.0000000000000000e+00 -6.4999831489012312e+00 +1.6506627579800974e-02 -3.0358680395205778e-01 +2.1054280525117752e-03
-6.5999999999999925e+00 +4.6334846912419074e+00 +0.0000000000000000e+00 -6.5999823591339988e+00 +1.6506563052035607e-02 -3.0358675957780556e-01 +2.1054630089623904e-03
-6.6999999999999922e+00 +4.6330811947550838e+00 +0.0000000000000000e+00 -6.6999815450682707e+00 +1.6506498301449193e-02 -3.0358671379492297e-01 +2.1054973740912441e-03
-6.7999999999999918e+00 +4.6326716307141771e+00 +0.0000000000000000e+00 -6.7999807063358952e+00 +1.6506434063809843e-02 -3.0358666676018403e-01 +2.1055309906394103e-03
-6.8999999999999915e+00 +4.6322559991216350e+00 +0.0000000000000000e+00 -6.8999798425687215e+00 +1.6506371075003811e-02 -3.0358661863023445e-01 +2.1055637014694294e-03
-6.9999999999999911e+00 +4.6318342999799489e+00 +0.0000000000000000e+00 -6.9999789533985979e+00 +1.6506310071038997e-02 -3.0358656956158653e-01 +2.1055953495696662e-03
-7.0999999999999908e+00 +4.6314065332916519e+00 +0.0000000000000000e+00 -7.0999780384573743e+00 +1.6506251788048439e-02 -3.0358651971061479e-01 +2.1056257780586729e-03
-7.1999999999999904e+00 +4.6309726990593143e+00 +0.0000000000000000e+00 -7.1999770973769008e+00 +1.6506196962293766e-02 -3.0358646923355204e-01 +2.1056548301895284e-03
-7.2999999999999901e+00 +4.6305327972855430e+00 +0.0000000000000000e+00 -7.2999761297890267e+00 +1.6506146330168690e-02 -3.0358641828648458e-01 +2.1056823493541912e-03
-7.3999999999999897e+00 +4.6300868279729750e+00 +0.0000000000000000e+00 -7.3999751353256036e+00 +1.6506100628202455e-02 -3.0358636702534825e-01 +2.1057081790878300e-03
-7.4999999999999893e+00 +4.6296347911242766e+00 +0.0000000000000000e+00 -7.4999741136184817e+00 +1.6506060593063299e-02 -3.0358631560592464e-01 +2.1057321630731586e-03
-7.5999999999999890e+00 +4.6291766867421389e+00 +0.0000000000000000e+00 -7.5999730642995118e+00 +1.6506026961561834e-02 -3.0358626418383561e-01 +2.1057541451447543e-03
-7.6999999999999886e+00 +4.6287125148292763e+00 +0.0000000000000000e+00 -7.6999719870005459e+00 +1.6506000470654536e-02 -3.0358621291454063e-01 +2.1057739692933826e-03
-7.7999999999999883e+00 +4.6282422753884225e+00 +0.0000000000000000e+00 -7.7999708813534347e+00 +1.6505981857447061e-02 -3.0358616195333199e-01 +2.1057914796703018e-03
-7.8999999999999879e+00 +4.6277659684223265e+00 +0.0000000000000000e+00 -7.8999697469900312e+00 +1.6505971859197721e-02 -3.0358611145532999e-01 +2.1058065205915677e-03
-7.9999999999999876e+00 +4.6272835939337504e+00 +0.0000000000000000e+00 -7.9999685835421870e+00 +1.6505971213320834e-02 -3.0358606157548057e-01 +2.1058189365423339e-03
-8.0999999999999872e+00 +4.6267951519254673e+00 +0.0000000000000000e+00 -8.0999673906417549e+00 +1.6505980403772682e-02 -3.0358601241227062e-01 +2.1058286260431250e-03
-8.1999999999999869e+00 +4.6263006424002588e+00 +0.0000000000000000e+00 -8.1999661679205875e+00 +1.6505998899107709e-02 -3.0358596383875142e-01 +2.1058357033240712e-03
-8.2999999999999865e+00 +4.6258000653609157e+00 +0.0000000000000000e+00 -8.2999649150105377e+00 +1.6506025913564090e-02 -3.0358591567161075e-01 +2.1058403364281292e-03
-8.3999999999999861e+00 +4.6252934208102445e+00 +0.0000000000000000e+00 -8.3999636315434572e+00 +1.6506060661116474e-02 -3.0358586772757928e-01 +2.1058426932116458e-03
-8.4999999999999858e+00 +4.6247807087510688e+00 +0.0000000000000000e+00 -8.4999623171512013e+00 +1.6506102355467046e-02 -3.0358581982343269e-01 +2.1058429413378468e-03
-8.5999999999999854e+00 +4.6242619291862335e+00 +0.0000000000000000e+00 -8.5999609714656220e+00 +1.6506150210036437e-02 -3.0358577177599261e-01 +2.1058412482703195e-03
-8.6999999999999851e+00 +4.6237370821186090e+00 +0.0000000000000000e+00 -8.6999595941185746e+00 +1.6506203437954791e-02 -3.0358572340212919e-01 +2.1058377812665056e-03
-8.7999999999999847e+00 +4.6232061675510954e+00 +0.0000000000000000e+00 -8.7999581847419126e+00 +1.6506261252052741e-02 -3.0358567451876323e-01 +2.1058327073712061e-03
-8.8999999999999844e+00 +4.6226691854866244e+00 +0.0000000000000000e+00 -8.8999567429674915e+00 +1.6506322864852489e-02 -3.0358562494286695e-01 +2.1058261934100778e-03
-8.9999999999999840e+00 +4.6221261359281636e+00 +0.0000000000000000e+00 -8.9999552684271649e+00 +1.6506387488558816e-02 -3.0358557449146667e-01 +2.1058184059831518e-03
-9.0999999999999837e+00 +4.6215770188787220e+00 +0.0000000000000000e+00 -9.0999537607527898e+00 +1.6506454335050196e-02 -3.0358552298164387e-01 +2.1058095114583402e-03
-9.1999999999999833e+00 +4.6210218343413496e+00 +0.0000000000000000e+00 -9.1999522195762218e+00 +1.6506522615869851e-02 -3.0358547023053739e-01 +2.1057996759649626e-03
-9.2999999999999829e+00 +4.6204605823191454e+00 +0.0000000000000000e+00 -9.2999506445293161e+00 +1.6506591542216870e-02 -3.0358541605534445e-01 +2.1057890653872736e-03
-9.3999999999999826e+00 +4.6198932628152596e+00 +0.0000000000000000e+00 -9.3999490352439299e+00 +1.6506660324937354e-02 -3.0358536027332300e-01 +2.1057778453579938e-03
-9.4999999999999822e+00 +4.6193198758328951e+00 +0.0000000000000000e+00 -9.4999473913519203e+00 +1.6506728174515511e-02 -3.0358530270179240e-01 +2.1057661812518471e-03
-9.5999999999999819e+00 +4.6187404213753140e+00 +0.0000000000000000e+00 -9.5999457124851446e+00 +1.6506794301064880e-02 -3.0358524315813534e-01 +2.1057542381791149e-03
-9.6999999999999815e+00 +4.6181548994458401e+00 +0.0000000000000000e+00 -9.6999439982754634e+00 +1.6506857914319446e-02 -3.0358518145979946e-01 +2.1057421809791798e-03
-9.7999999999999812e+00 +4.6175633100478617e+00 +0.0000000000000000e+00 -9.7999422483547338e+00 +1.6506918223624899e-02 -3.0358511742429811e-01 +2.1057301742140894e-03
-9.8999999999999808e+00 +4.6169656531848373e+00 +0.0000000000000000e+00 -9.8999404623548148e+00 +1.6506974437929818e-02 -3.0358505086921245e-01 +2.1057183821621178e-03
-9.9999999999999805e+00 +4.6163619288602984e+00 +0.0000000000000000e+00 -9.9999386399075689e+00 +1.6507025765776912e-02 -3.0358498161219211e-01 +2.1057069688113447e-03
-1.0099999999999980e+01 +4.6157521370778509e+00 +0.0000000000000000e+00 -1.0099936780644855e+01 +1.6507071555678345e-02 -3.0358490954782258e-01 +2.1056960990757418e-03
-1.0199999999999980e+01 +4.6151362778411800e+00 +0.0000000000000000e+00 -1.0199934884198536e+01 +1.6507111718520231e-02 -3.0358483487887328e-01 +2.1056859426549818e-03
-1.0299999999999979e+01 +4.6145143511540452e+00 +0.0000000000000000e+00 -1.0299932950200473e+01 +1.6507146306289158e-02 -3.0358475788556205e-01 +2.1056766706944717e-03
-1.0399999999999979e+01 +4.6138863570202746e+00 +0.0000000000000000e+00 -1.0399930978282530e+01 +1.6507175371233872e-02 -3.0358467884843521e-01 +2.1056684546125397e-03
-1.0499999999999979e+01 +4.6132522954437594e+00 +0.0000000000000000e+00 -1.0499928968076572e+01 +1.6507198965872896e-02 -3.0358459804837451e-01 +2.1056614661077756e-03
-1.0599999999999978e+01 +4.6126121664284474e+00 +0.0000000000000000e+00 -1.0599926919214463e+01 +1.6507217143002038e-02 -3.0358451576660617e-01 +2.1056558771663674e-03
-1.0699999999999978e+01 +4.6119659699783400e+00 +0.0000000000000000e+00 -1.0699924831328065e+01 +1.6507229955702026e-02 -3.0358443228470833e-01 +2.1056518600694268e-03
-1.0799999999999978e+01 +4.6113137060974845e+00 +0.0000000000000000e+00 -1.0799922704049248e+01 +1.6507237457346013e-02 -3.0358434788461980e-01 +2.1056495874003018e-03
-1.0899999999999977e+01 +4.6106553747899675e+00 +0.0000000000000000e+00 -1.0899920537009876e+01 +1.6507239701607133e-02 -3.0358426284864776e-01 +2.1056492320518892e-03
-1.0999999999999977e+01 +4.6099909760599127e+00 +0.0000000000000000e+00 -1.0999918329841817e+01 +1.6507236742466055e-02 -3.0358417745947613e-01 +2.1056509672339224e-03
-1.1099999999999977e+01 +4.6093205099114716e+00 +0.0000000000000000e+00 -1.1099916082176936e+01 +1.6507228634218489e-02 -3.0358409200017367e-01 +2.1056549664802702e-03
-1.1199999999999976e+01 +4.6086439763488203e+00 +0.0000000000000000e+00 -1.1199913793647102e+01 +1.6507215431482706e-02 -3.0358400675420227e-01 +2.1056614036561996e-03
-1.1299999999999976e+01 +4.6079613753761528e+00 +0.0000000000000000e+00 -1.1299911463884184e+01 +1.6507197189207085e-02 -3.0358392200542511e-01 +2.1056704529656581e-03
-1.1399999999999975e+01 +4.6072727069976755e+00 +0.0000000000000000e+00 -1.1399909092520049e+01 +1.6507173962677552e-02 -3.0358383803811428e-01 +2.1056822889585179e-03
-1.1499999999999975e+01 +4.6065779712176012e+00 +0.0000000000000000e+00 -1.1499906679186568e+01 +1.6507145807525145e-02 -3.0358375513696040e-01 +2.1056970865378278e-03
-1.1599999999999975e+01 +4.6058771680401440e+00 +0.0000000000000000e+00 -1.1599904223515608e+01 +1.6507112779733428e-02 -3.0358367358707905e-01 +2.1057150209670503e-03
-1.1699999999999974e+01 +4.6051702974695132e+00 +0.0000000000000000e+00 -1.1699901725139041e+01 +1.6507074935646019e-02 -3.0358359367401999e-01 +2.1057362678772768e-03
