# multipoles
# s[mm] polynom_b[n=0][T/m^n] polynom_b[n=1][T/m^n] polynom_b[n=2][T/m^n] polynom_b[n=3][T/m^n] polynom_b[n=4][T/m^n] polynom_b[n=5][T/m^n] polynom_b[n=6][T/m^n] 
+0.0000000000000000e+00 -2.1669059675657881e-01 +5.2784146675445142e-04 +2.3366215596342160e-01 -8.5344730388233518e+00 -1.5200658731119449e+03 +5.0771614835660817e+04 +5.4445670480237426e+06 
-1.0000000000000001e-01 -2.1669055635066431e-01 +5.2776328538604747e-04 +2.3395055392360101e-01 -8.5131015096893776e+00 -1.5330927138860000e+03 +5.0582720826927980e+04 +5.5136209538412271e+06 
-2.0000000000000001e-01 -2.1669051734331798e-01 +5.2724980838793583e-04 +2.3431763013162557e-01 -8.4953553918567390e+00 -1.5471032218477051e+03 +5.0445921354732891e+04 +5.5858479815087989e+06 
-3.0000000000000004e-01 -2.1669047964678403e-01 +5.2633157347954640e-04 +2.3474529052590956e-01 -8.4809508300579033e+00 -1.5617936827580734e+03 +5.0357550354354767e+04 +5.6600380020193346e+06 
-4.0000000000000002e-01 -2.1669044317329311e-01 +5.2503911723381178e-04 +2.3521544104750894e-01 -8.4696039659084672e+00 -1.5768603901107899e+03 +5.0313941872608695e+04 +5.7349809286536444e+06 
-5.0000000000000000e-01 -2.1669040783508153e-01 +5.2340297514326796e-04 +2.3570999011428853e-01 -8.4610309423256833e+00 -1.5919996939921418e+03 +5.0311430078098078e+04 +5.8094669555641366e+06 
-5.9999999999999998e-01 -2.1669037354438120e-01 +5.2145368381260849e-04 +2.3621084674835430e-01 -8.4549479676489785e+00 -1.6069079615014321e+03 +5.0346349607138676e+04 +5.8822863613267215e+06 
-6.9999999999999996e-01 -2.1669034021342531e-01 +5.1922178226972279e-04 +2.3669992130718789e-01 -8.4510713578258319e+00 -1.6212815914089026e+03 +5.0415035795395030e+04 +5.9522295823745243e+06 
-7.9999999999999993e-01 -2.1669030775444748e-01 +5.1673781081265863e-04 +2.3715912499086600e-01 -8.4491175011555679e+00 -1.6348170029131459e+03 +5.0513824444809965e+04 +6.0180871565712094e+06 
-8.9999999999999991e-01 -2.1669027607968278e-01 +5.1403231474417309e-04 +2.3757036965379275e-01 -8.4488029726156721e+00 -1.6472106308473269e+03 +5.0639052476132871e+04 +6.0786496996916449e+06 
-9.9999999999999989e-01 -2.1669024510135915e-01 +5.1113584450146216e-04 +2.3791556665006972e-01 -8.4498445367176664e+00 -1.6581589030878549e+03 +5.0787057918320519e+04 +6.1327077979154792e+06 
-1.0999999999999999e+00 -2.1669021473171041e-01 +5.0807895571302686e-04 +2.3817662800686687e-01 -8.4519591514476335e+00 -1.6673582613728404e+03 +5.0954179912853695e+04 +6.1790521052044826e+06 
-1.2000000000000000e+00 -2.1669018488297329e-01 +5.0489221207357968e-04 +2.3833546591208560e-01 -8.4548640540349105e+00 -1.6745051502746562e+03 +5.1136759191517813e+04 +6.2164732888289131e+06 
-1.3000000000000000e+00 -2.1669015546737486e-01 +5.0160618500060092e-04 +2.3837399087834693e-01 -8.4582767532788772e+00 -1.6792959821252443e+03 +5.1331138015471588e+04 +6.2437618653596174e+06 
-1.4000000000000001e+00 -2.1669012639715829e-01 +4.9825145558195867e-04 +2.3827411458451617e-01 -8.4619150855982959e+00 -1.6814271881387863e+03 +5.1533660470239854e+04 +6.2597084364207350e+06 
-1.5000000000000002e+00 -2.1669009758455463e-01 +4.9485861494979295e-04 +2.3801774629022412e-01 -8.4654972313325700e+00 -1.6805951512732995e+03 +5.1740672553926044e+04 +6.2631033759028623e+06 
-1.6000000000000003e+00 -2.1669006894180207e-01 +4.9145826639181752e-04 +2.3758679473048222e-01 -8.4687417732041634e+00 -1.6764962389530886e+03 +5.1948522480393025e+04 +6.2527369777406696e+06 
-1.7000000000000004e+00 -2.1669004038114226e-01 +4.8808102503280246e-04 +2.3696316762196146e-01 -8.4713676940381912e+00 -1.6688267941958511e+03 +5.2153560662573655e+04 +6.2273994172805529e+06 
-1.8000000000000005e+00 -2.1669001181481501e-01 +4.8475752021812752e-04 +2.3612877067109467e-01 -8.4730944436568620e+00 -1.6572831153129887e+03 +5.2352140066404500e+04 +6.1858806533629922e+06 
-1.9000000000000006e+00 -2.1668998315506488e-01 +4.8151839612028383e-04 +2.3506550800564813e-01 -8.4736419597181207e+00 -1.6415614619537566e+03 +5.2540616317985063e+04 +6.1269704529185630e+06 
-2.0000000000000004e+00 -2.1668995431413818e-01 +4.7839431266131187e-04 +2.3375528196454748e-01 -8.4727306746909363e+00 -1.6213580507144745e+03 +5.2715347511612039e+04 +6.0494583555600662e+06 
-2.1000000000000005e+00 -2.1668992521987210e-01 +4.7541930216588794e-04 +2.3218776767294430e-01 -8.4702939065917882e+00 -1.5965050617882534e+03 +5.2874009132913838e+04 +5.9526886743243700e+06 
-2.2000000000000006e+00 -2.1668989587407941e-01 +4.7262669926629940e-04 +2.3038520971083573e-01 -8.4669856897037086e+00 -1.5673909039502669e+03 +5.3019790897034552e+04 +5.8382439764401279e+06 
-2.3000000000000007e+00 -2.1668986630042905e-01 +4.7004615788969243e-04 +2.2837851538687853e-01 -8.4636161905584260e+00 -1.5345480899681274e+03 +5.3157385309454221e+04 +5.7082749802512936e+06 
-2.4000000000000008e+00 -2.1668983652261772e-01 +4.6770732241278336e-04 +2.2619859479025295e-01 -8.4609953641025974e+00 -1.4985091735669719e+03 +5.3291484107405086e+04 +5.5649325505152969e+06 
-2.5000000000000009e+00 -2.1668980656435746e-01 +4.6563982455465259e-04 +2.2387635913488454e-01 -8.4599327789475627e+00 -1.4598067263796970e+03 +5.3426776966559009e+04 +5.4103676274291510e+06 
-2.6000000000000010e+00 -2.1668977644939741e-01 +4.6387328270667725e-04 +2.2144272337907572e-01 -8.4612375880490127e+00 -1.4189733866580752e+03 +5.3567951342861983e+04 +5.2467314540755069e+06 
-2.7000000000000011e+00 -2.1668974620151366e-01 +4.6243729980682423e-04 +2.1892860505973158e-01 -8.4657184612594101e+00 -1.3765418384550183e+03 +5.3719692102529072e+04 +5.0761754811905529e+06 
-2.8000000000000012e+00 -2.1668971584451283e-01 +4.6136146036084941e-04 +2.1636492464866455e-01 -8.4741834937603073e+00 -1.3330448172624540e+03 +5.3886681020652373e+04 +4.9008513903504545e+06 
-2.9000000000000012e+00 -2.1668968540223602e-01 +4.6067533051797320e-04 +2.1378260605126731e-01 -8.4874402009975896e+00 -1.2890151196239715e+03 +5.4073596766833325e+04 +4.7229111392291877e+06 
-3.0000000000000013e+00 -2.1668965489856246e-01 +4.6040845356872602e-04 +2.1121257719348022e-01 -8.5062953818904870e+00 -1.2449856147801920e+03 +5.4285114138137498e+04 +4.5445070177615592e+06 
-3.1000000000000014e+00 -2.1668962435740707e-01 +4.6059035054918975e-04 +2.0868576944052955e-01 -8.5315551286756932e+00 -1.2014892323545785e+03 +5.4525904131899610e+04 +4.3677915861458117e+06 
-3.2000000000000015e+00 -2.1668959380272962e-01 +4.6125051681957164e-04 +2.0623311895594876e-01 -8.5640247239102170e+00 -1.1590589887052279e+03 +5.4800633378637576e+04 +4.1949178002230255e+06 
-3.3000000000000016e+00 -2.1668956325852978e-01 +4.6241842029235179e-04 +2.0388556609455444e-01 -8.6045085815822837e+00 -1.1182279760340207e+03 +5.5113963820197816e+04 +4.0280389615103360e+06 
-3.4000000000000017e+00 -2.1668953274884906e-01 +4.6412349958333633e-04 +2.0167405545668554e-01 -8.6538101849839588e+00 -1.0795293617673549e+03 +5.5470552364382216e+04 +3.8693087092960048e+06 
-3.5000000000000018e+00 -2.1668950229778108e-01 +4.6639516258145121e-04 +1.9962953725417570e-01 -8.7127320414015834e+00 -1.0434964151352685e+03 +5.5875050651521633e+04 +3.7208811479618442e+06 
-3.6000000000000019e+00 -2.1668947192946986e-01 +4.6926278344996589e-04 +1.9778296724964906e-01 -8.7820755885698016e+00 -1.0106625070388308e+03 +5.6332104533667618e+04 +3.5849108482191893e+06 
-3.7000000000000020e+00 -2.1668944166810825e-01 +4.7275570205206811e-04 +1.9616530623336695e-01 -8.8626411703853911e+00 -9.8156109731872459e+02 +5.6846353953049460e+04 +3.4635527790577235e+06 
-3.8000000000000020e+00 -2.1668941153794075e-01 +4.7690322091768848e-04 +1.9480752066512896e-01 -8.9552279434068964e+00 -9.5672574979550416e+02 +5.7422432421536549e+04 +3.3589623866244531e+06 
-3.9000000000000021e+00 -2.1668938156326920e-01 +4.8173460362657748e-04 +1.9374058327067231e-01 -9.0606338227781791e+00 -9.3669014181542946e+02 +5.8064966730507251e+04 +3.2732956336184456e+06 
-4.0000000000000018e+00 -2.1668935176845516e-01 +4.8727906971223161e-04 +1.9299547159501143e-01 -9.1796556822999111e+00 -9.2198807164638049e+02 +5.8778578639467261e+04 +3.2087091264713737e+06 
-4.1000000000000014e+00 -2.1668932216339473e-01 +4.9354361104249551e-04 +1.9259462683701242e-01 -9.3126968478207459e+00 -9.1301084263923599e+02 +5.9566008701990708e+04 +3.1667779792611976e+06 
-4.2000000000000011e+00 -2.1668929267073431e-01 +5.0047575245599184e-04 +1.9252604000471923e-01 -9.4588083686462454e+00 -9.0957361559375670e+02 +6.0422031120696622e+04 +3.1467551637354563e+06 
-4.3000000000000007e+00 -2.1668926318229298e-01 +5.0801517126716430e-04 +1.9276842148634990e-01 -9.6167452119178538e+00 -9.1133864687746325e+02 +6.1339144279886197e+04 +3.1472988651142768e+06 
-4.4000000000000004e+00 -2.1668923358981923e-01 +5.1610155473177477e-04 +1.9330047187456711e-01 -9.7852620641464743e+00 -9.1796804573274267e+02 +6.2309841601311513e+04 +3.1670668828433654e+06 
-4.5000000000000000e+00 -2.1668920378499198e-01 +5.2467460053310278e-04 +1.9410088354351351e-01 -9.9631138658312679e+00 -9.2912375646576152e+02 +6.3326617709226040e+04 +3.2047162184254904e+06 
-4.5999999999999996e+00 -2.1668917365944357e-01 +5.3367401739266092e-04 +1.9514834354285449e-01 -1.0149055830615600e+01 -9.4446761280315457e+02 +6.4381968528185222e+04 +3.2589033311131191e+06 
-4.6999999999999993e+00 -2.1668914310473458e-01 +5.4303952930001695e-04 +1.9642153068219537e-01 -1.0341843564061374e+01 -9.6366128297341675e+02 +6.5468391934292980e+04 +3.3282838795503317e+06 
-4.7999999999999989e+00 -2.1668911201235375e-01 +5.5271087332925558e-04 +1.9789911520582792e-01 -1.0540233004256720e+01 -9.8636626121293045e+02 +6.6578387403872155e+04 +3.4115126761511369e+06 
-4.8999999999999986e+00 -2.1668908027371783e-01 +5.6262780296710232e-04 +1.9955975928586603e-01 -1.0742980513541603e+01 -1.0122438796957611e+03 +6.7704456510170465e+04 +3.5072437504975600e+06 
-4.9999999999999982e+00 -2.1668904778016720e-01 +5.7273008887157170e-04 +2.0138211617266458e-01 -1.0948842900620344e+01 -1.0409552893181906e+03 +6.8839103030289407e+04 +3.6141302504517664e+06 
-5.0999999999999979e+00 -2.1668901442295402e-01 +5.8295752017902371e-04 +2.0334482910318127e-01 -1.1156577457102415e+01 -1.0721614413281789e+03 +6.9974833131252439e+04 +3.7308243621594273e+06 
-5.1999999999999975e+00 -2.1668898009324847e-01 +5.9324990660821863e-04 +2.0542653185241305e-01 -1.1364942018275720e+01 -1.1055230949873603e+03 +7.1104155700962379e+04 +3.8559773390231100e+06 
-5.2999999999999972e+00 -2.1668894468212641e-01 +6.0354707742155491e-04 +2.0760584750259661e-01 -1.1572694933372192e+01 -1.1407007956389564e+03 +7.2219582157118071e+04 +3.9882394017630182e+06 
-5.3999999999999968e+00 -2.1668890808056179e-01 +6.1378888567188716e-04 +2.0986138736040102e-01 -1.1778595185269035e+01 -1.1773548530998501e+03 +7.3313627107765962e+04 +4.1262596345584076e+06 
-5.4999999999999964e+00 -2.1668887017943911e-01 +6.2391520764269639e-04 +2.1217175271768027e-01 -1.1981402375309479e+01 -1.2151453749336299e+03 +7.4378808246868401e+04 +4.2686861417139601e+06 
-5.5999999999999961e+00 -2.1668883086952842e-01 +6.3386594470236305e-04 +2.1451553171037149e-01 -1.2179876774422228e+01 -1.2537322066534311e+03 +7.5407646622294982e+04 +4.4141657649933947e+06 
-5.6999999999999957e+00 -2.1668879004149857e-01 +6.4358102477873132e-04 +2.1687130109711503e-01 -1.2372779367124998e+01 -1.2927749644090231e+03 +7.6392666870785251e+04 +4.5613442352850800e+06 
-5.7999999999999954e+00 -2.1668874758589474e-01 +6.5300040268736386e-04 +2.1921762349956311e-01 -1.2558871859269836e+01 -1.3319329837646403e+03 +7.7326397240950901e+04 +4.7088659346718434e+06 
-5.8999999999999950e+00 -2.1668870339315249e-01 +6.6206406331193270e-04 +2.2153304922450520e-01 -1.2736916767974048e+01 -1.3708653529539879e+03 +7.8201370082676222e+04 +4.8553740496587390e+06 
-5.9999999999999947e+00 -2.1668865735350457e-01 +6.7071201823587197e-04 +2.2379610367826458e-01 -1.2905677745418133e+01 -1.4092306803493489e+03 +7.9010132263313077e+04 +4.9995101699922355e+06 
-6.0999999999999943e+00 -2.1668860936516904e-01 +6.7889664699312738e-04 +2.2598631638945485e-01 -1.3064176664730137e+01 -1.4467008118416920e+03 +7.9747184583178503e+04 +5.1400093523854278e+06 
-6.1999999999999940e+00 -2.1668855941708540e-01 +6.8661336759703623e-04 +2.2809185162680837e-01 -1.3212300943899447e+01 -1.4830911117144208e+03 +8.0412959864952732e+04 +5.2762629359555803e+06 
-6.2999999999999936e+00 -2.1668850753429883e-01 +6.9386641531241110e-04 +2.3010414201486745e-01 -1.3350107919287906e+01 -1.5182751685192354e+03 +8.1009215005813385e+04 +5.4079019434238058e+06 
-6.3999999999999932e+00 -2.1668845374190734e-01 +7.0066004074110198e-04 +2.3201463048874682e-01 -1.3477655652659852e+01 -1.5521268128117058e+03 +8.1537716523919909e+04 +5.5345581973957252e+06 
-6.4999999999999929e+00 -2.1668839806502613e-01 +7.0699852436649458e-04 +2.3381476378586016e-01 -1.3595003119989009e+01 -1.5845199838091619e+03 +8.2000235724753176e+04 +5.6558641411256380e+06 
-6.5999999999999925e+00 -2.1668834052879860e-01 +7.1288617577846246e-04 +2.3549599386951581e-01 -1.3702210193562667e+01 -1.6153287573820355e+03 +8.2398548588999547e+04 +5.7714529733320847e+06 
-6.6999999999999922e+00 -2.1668828115837457e-01 +7.1832733654054732e-04 +2.3704977520399015e-01 -1.3799337726365460e+01 -1.6444272960591525e+03 +8.2734436238020658e+04 +5.8809584170952821e+06 
-6.7999999999999918e+00 -2.1668821997893273e-01 +7.2332637930633639e-04 +2.3846756775505273e-01 -1.3886447529593076e+01 -1.6716899081577758e+03 +8.3009684789650957e+04 +5.9840150051020095e+06 
-6.8999999999999915e+00 -2.1668815701568045e-01 +7.2788771060935638e-04 +2.3974083684922232e-01 -1.3963602460006175e+01 -1.6969910454681819e+03 +8.3226085856478472e+04 +6.0802580699182991e+06 
-6.9999999999999911e+00 -2.1668809229383890e-01 +7.3201577025611088e-04 +2.4086105155317925e-01 -1.4030866400687829e+01 -1.7202052753984065e+03 +8.3385436406125475e+04 +6.1693236203727489e+06 
-7.0999999999999908e+00 -2.1668802583866587e-01 +7.3571503290944249e-04 +2.4181968744426816e-01 -1.4088304313974263e+01 -1.7412073339154140e+03 +8.3489539062653523e+04 +6.2508485925825099e+06 
-7.1999999999999904e+00 -2.1668795767543891e-01 +7.3899001043219040e-04 +2.4260822465194007e-01 -1.4135982309269155e+01 -1.7598720909260126e+03 +8.3540202473345678e+04 +6.3244706939032245e+06 
-7.2999999999999901e+00 -2.1668788782947285e-01 +7.4184525043426554e-04 +2.4321814999056213e-01 -1.4173967605363565e+01 -1.7760745916916219e+03 +8.3539241080424021e+04 +6.3898286010578871e+06 
-7.3999999999999897e+00 -2.1668781632611067e-01 +7.4428533913513655e-04 +2.4364095605115157e-01 -1.4202328617580710e+01 -1.7896900411475312e+03 +8.3488475610737223e+04 +6.4465618901437754e+06 
-7.4999999999999893e+00 -2.1668774319072712e-01 +7.4631490159570465e-04 +2.4386814157555625e-01 -1.4221134965517937e+01 -1.8005938131494745e+03 +8.3389733099337740e+04 +6.4943110866771359e+06 
-7.5999999999999890e+00 -2.1668766844873621e-01 +7.4793860271958276e-04 +2.4389121256773719e-01 -1.4230457505763489e+01 -1.8086614728553945e+03 +8.3244847065808484e+04 +6.5327177745401245e+06 
-7.6999999999999886e+00 -2.1668759212558164e-01 +7.4916114903645617e-04 +2.4370168093706540e-01 -1.4230368387154783e+01 -1.8137687518526452e+03 +8.3055657817865402e+04 +6.5614244817081001e+06 
-7.7999999999999883e+00 -2.1668751424675070e-01 +7.4998728851146724e-04 +2.4329106662214464e-01 -1.4220941048163979e+01 -1.8157915911620603e+03 +8.2824012418828541e+04 +6.5800748899356844e+06 
-7.8999999999999879e+00 -2.1668743483776770e-01 +7.5042181245949327e-04 +2.4265089652967764e-01 -1.4202250275002331e+01 -1.8146061218396235e+03 +8.2551765010451956e+04 +6.5883137458664523e+06 
-7.9999999999999876e+00 -2.1668735392441940e-01 +7.5046952480108424e-04 +2.4177273874144140e-01 -1.4174366667691869e+01 -1.8100888348649444e+03 +8.2240722498155170e+04 +6.5857850620969813e+06 
-8.0999999999999872e+00 -2.1668727156908990e-01 +7.5014203569514874e-04 +2.4065495760192232e-01 -1.4137197094230803e+01 -1.8022055165423578e+03 +8.1890487377328900e+04 +6.5723832447472140e+06 
-8.1999999999999869e+00 -2.1668718792004324e-01 +7.4946724474351926e-04 +2.3931247000926639e-01 -1.4090805021402211e+01 -1.7911278162089784e+03 +8.1500244979972354e+04 +6.5485686779598510e+06 
-8.2999999999999865e+00 -2.1668710314012624e-01 +7.4847684408726198e-04 +2.3776299360899103e-01 -1.4035524590330036e+01 -1.7770459031947003e+03 +8.1071053706913415e+04 +6.5147742098786728e+06 
-8.3999999999999861e+00 -2.1668701739219123e-01 +7.4720258404264387e-04 +2.3602423330290748e-01 -1.3971694913593979e+01 -1.7601492554143392e+03 +8.0604010233415276e+04 +6.4714279398469720e+06 
-8.4999999999999858e+00 -2.1668693083911689e-01 +7.4567616567485894e-04 +2.3411389310144712e-01 -1.3899653968317933e+01 -1.7406273160411968e+03 +8.0100206514825681e+04 +6.4189577609226927e+06 
-8.5999999999999854e+00 -2.1668684364381913e-01 +7.4392923710566306e-04 +2.3204967703675333e-01 -1.3819738499385979e+01 -1.7186695082951385e+03 +7.9560729295855184e+04 +6.3577914237134792e+06 
-8.6999999999999851e+00 -2.1668675596924558e-01 +7.4199339345911624e-04 +2.2984928850545147e-01 -1.3732284026722482e+01 -1.6944652228570285e+03 +7.8986660212329720e+04 +6.2883564756506244e+06 
-8.7999999999999847e+00 -2.1668666797837752e-01 +7.3990017366914193e-04 +2.2753043020216454e-01 -1.3637624761839268e+01 -1.6682038154384034e+03 +7.8379075373643034e+04 +6.2110802474223925e+06 
-8.8999999999999844e+00 -2.1668657983422765e-01 +7.3768105976544716e-04 +2.2511080388353871e-01 -1.3536093593447955e+01 -1.6400746022062899e+03 +7.7739045331754547e+04 +6.1263898303999240e+06 
-8.9999999999999840e+00 -2.1668649169985091e-01 +7.3536747387740716e-04 +2.2260811147704357e-01 -1.3428022010714090e+01 -1.6102668790225885e+03 +7.7067634706229059e+04 +6.0347121626531295e+06 
-9.0999999999999837e+00 -2.1668640373833464e-01 +7.3299077781177971e-04 +2.2004005368693805e-01 -1.3313740100351817e+01 -1.5789698947945719e+03 +7.6365902227571190e+04 +5.9364739030354396e+06 
-9.1999999999999833e+00 -2.1668631611280831e-01 +7.3058227001790530e-04 +2.1742433116563617e-01 -1.3193576464397946e+01 -1.5463728729114000e+03 +7.5634900317182895e+04 +5.8321015298734764e+06 
-9.2999999999999829e+00 -2.1668622898643633e-01 +7.2817318418418151e-04 +2.1477864339027194e-01 -1.3067858191258770e+01 -1.5126649887645576e+03 +7.4875674989948559e+04 +5.7220212316686902e+06 
-9.3999999999999826e+00 -2.1668614252242765e-01 +7.2579468733358196e-04 +2.1212068977838866e-01 -1.2936910806348026e+01 -1.4780353905031895e+03 +7.4089265621634913e+04 +5.6066590043530995e+06 
-9.4999999999999822e+00 -2.1668605688402851e-01 +7.2347787840686194e-04 +2.0946816862579895e-01 -1.2801058241403153e+01 -1.4426731778248297e+03 +7.3276704838824371e+04 +5.4864405478478279e+06 
-9.5999999999999819e+00 -2.1668597223453134e-01 +7.2125378641749865e-04 +2.0683877802440978e-01 -1.2660622789063343e+01 -1.4067674184637353e+03 +7.2439018314822009e+04 +5.3617913418551637e+06 
-9.6999999999999815e+00 -2.1668588873726521e-01 +7.1915336706155546e-04 +2.0425021464366069e-01 -1.2515925010918025e+01 -1.3705071250835767e+03 +7.1577224294290063e+04 +5.2331365364949703e+06 
-9.7999999999999812e+00 -2.1668580655561120e-01 +7.1720750338160829e-04 +2.0172017545893792e-01 -1.2367283770312145e+01 -1.3340812862546863e+03 +7.0692333857986887e+04 +5.1009010936922319e+06 
-9.8999999999999808e+00 -2.1668572585298915e-01 +7.1544700185759310e-04 +1.9926635585579680e-01 -1.2215016121023179e+01 -1.2976788301819306e+03 +6.9785350321279780e+04 +4.9655096154316999e+06 
-9.9999999999999805e+00 -2.1668564679289673e-01 +7.1390294869248534e-04 +1.9690648269026301e-01 -1.2059459382300149e+01 -1.2614910531273188e+03 +6.8857392446735190e+04 +4.8274007507303841e+06 
-1.0099999999999980e+01 -2.1668556952945714e-01 +7.1260379150759831e-04 +1.9465492552829841e-01 -1.1901622036303888e+01 -1.2257282557453818e+03 +6.7914218662019513e+04 +4.6872948582476471e+06 
