# trajectory
# s[mm] rx[mm] ry[mm] rz[mm] px[rad] py[rad] pz[rad]
0.0000000000000000e+00 -4.6467000000000001e+00 +0.0000000000000000e+00 +0.0000000000000000e+00 +0.0000000000000000e+00 +0.0000000000000000e+00 +1.0000000000000000e+00
-1.0000000000000001e-01 -4.6466956831361088e+00 +0.0000000000000000e+00 -9.9999999875764564e-02 -8.6337279714134149e-05 +0.0000000000000000e+00 +9.9999999627293701e-01
-2.0000000000000001e-01 -4.6466827325436757e+00 +0.0000000000000000e+00 -1.9999999900611648e-01 -1.7267457085440787e-04 +0.0000000000000000e+00 +9.9999998509174615e-01
-3.0000000000000004e-01 -4.6466611482215532e+00 +0.0000000000000000e+00 -2.9999999664564275e-01 -2.5901187351579341e-04 +0.0000000000000000e+00 +9.9999996645642408e-01
-4.0000000000000002e-01 -4.6466309301685866e+00 +0.0000000000000000e+00 -3.9999999204893011e-01 -3.4534918774318813e-04 +0.0000000000000000e+00 +9.9999994036696749e-01
-5.0000000000000000e-01 -4.6465920783836188e+00 +0.0000000000000000e+00 -4.9999998447056493e-01 -4.3168651353142146e-04 +0.0000000000000000e+00 +9.9999990682337270e-01
-5.9999999999999998e-01 -4.6465445928654967e+00 +0.0000000000000000e+00 -5.9999997316513320e-01 -5.1802385082526294e-04 +0.0000000000000000e+00 +9.9999986582563605e-01
-6.9999999999999996e-01 -4.6464884736130738e+00 +0.0000000000000000e+00 -6.9999995738722054e-01 -6.0436119951943167e-04 +0.0000000000000000e+00 +9.9999981737375365e-01
-7.9999999999999993e-01 -4.6464237206252177e+00 +0.0000000000000000e+00 -7.9999993639141220e-01 -6.9069855945860673e-04 +0.0000000000000000e+00 +9.9999976146772163e-01
-8.9999999999999991e-01 -4.6463503339008136e+00 +0.0000000000000000e+00 -8.9999990943229302e-01 -7.7703593043743893e-04 +0.0000000000000000e+00 +9.9999969810753597e-01
-9.9999999999999989e-01 -4.6462683134387701e+00 +0.0000000000000000e+00 -9.9999987576444749e-01 -8.6337331220056376e-04 +0.0000000000000000e+00 +9.9999962729319258e-01
-1.0999999999999999e+00 -4.6461776592380239e+00 +0.0000000000000000e+00 -1.0999998346424595e+00 -9.4971070444261512e-04 +0.0000000000000000e+00 +9.9999954902468735e-01
-1.2000000000000000e+00 -4.6460783712975440e+00 +0.0000000000000000e+00 -1.1999997853209128e+00 -1.0360481068082410e-03 +0.0000000000000000e+00 +9.9999946330201628e-01
-1.3000000000000000e+00 -4.6459704496163381e+00 +0.0000000000000000e+00 -1.2999997270543904e+00 -1.1223855188921194e-03 +0.0000000000000000e+00 +9.9999937012517526e-01
-1.4000000000000001e+00 -4.6458538941934568e+00 +0.0000000000000000e+00 -1.3999996590974753e+00 -1.2087229402389765e-03 +0.0000000000000000e+00 +9.9999926949416018e-01
-1.5000000000000002e+00 -4.6457287050279987e+00 +0.0000000000000000e+00 -1.4999995807047497e+00 -1.2950603703436047e-03 +0.0000000000000000e+00 +9.9999916140896705e-01
-1.6000000000000003e+00 -4.6455948821191146e+00 +0.0000000000000000e+00 -1.5999994911307958e+00 -1.3813978086508838e-03 +0.0000000000000000e+00 +9.9999904586959198e-01
-1.7000000000000004e+00 -4.6454524254660150e+00 +0.0000000000000000e+00 -1.6999993896301953e+00 -1.4677352545558007e-03 +0.0000000000000000e+00 +9.9999892287603120e-01
-1.8000000000000005e+00 -4.6453013350679724e+00 +0.0000000000000000e+00 -1.7999992754575291e+00 -1.5540727074034725e-03 +0.0000000000000000e+00 +9.9999879242828094e-01
-1.9000000000000006e+00 -4.6451416109243269e+00 +0.0000000000000000e+00 -1.8999991478673783e+00 -1.6404101664891700e-03 +0.0000000000000000e+00 +9.9999865452633774e-01
-2.0000000000000004e+00 -4.6449732530344923e+00 +0.0000000000000000e+00 -1.9999990061143234e+00 -1.7267476310583426e-03 +0.0000000000000000e+00 +9.9999850917019806e-01
-2.1000000000000005e+00 -4.6447962613979596e+00 +0.0000000000000000e+00 -2.0999988494529447e+00 -1.8130851003045332e-03 +0.0000000000000000e+00 +9.9999835635985879e-01
-2.2000000000000006e+00 -4.6446106360143045e+00 +0.0000000000000000e+00 -2.1999986771378217e+00 -1.8994225733461876e-03 +0.0000000000000000e+00 +9.9999819609531693e-01
-2.3000000000000007e+00 -4.6444163768831963e+00 +0.0000000000000000e+00 -2.2999984884235345e+00 -1.9857600492034591e-03 +0.0000000000000000e+00 +9.9999802837656993e-01
-2.4000000000000008e+00 -4.6442134840044060e+00 +0.0000000000000000e+00 -2.3999982825646620e+00 -2.0720975267961160e-03 +0.0000000000000000e+00 +9.9999785320361545e-01
-2.5000000000000009e+00 -4.6440019573778182e+00 +0.0000000000000000e+00 -2.4999980588157840e+00 -2.1584350049435597e-03 +0.0000000000000000e+00 +9.9999767057645172e-01
-2.6000000000000010e+00 -4.6437817970034407e+00 +0.0000000000000000e+00 -2.5999978164314790e+00 -2.2447724823648429e-03 +0.0000000000000000e+00 +9.9999748049507742e-01
-2.7000000000000011e+00 -4.6435530028814149e+00 +0.0000000000000000e+00 -2.6999975546663260e+00 -2.3311099576786881e-03 +0.0000000000000000e+00 +9.9999728295949164e-01
-2.8000000000000012e+00 -4.6433155750120241e+00 +0.0000000000000000e+00 -2.7999972727749038e+00 -2.4174474294035063e-03 +0.0000000000000000e+00 +9.9999707796969406e-01
-2.9000000000000012e+00 -4.6430695133957061e+00 +0.0000000000000000e+00 -2.8999969700117911e+00 -2.5037848959574139e-03 +0.0000000000000000e+00 +9.9999686552568512e-01
-3.0000000000000013e+00 -4.6428148180330613e+00 +0.0000000000000000e+00 -2.9999966456315672e+00 -2.5901223556582522e-03 +0.0000000000000000e+00 +9.9999664562746560e-01
-3.1000000000000014e+00 -4.6425514889248625e+00 +0.0000000000000000e+00 -3.0999962988888106e+00 -2.6764598067236058e-03 +0.0000000000000000e+00 +9.9999641827503727e-01
-3.2000000000000015e+00 -4.6422795260720671e+00 +0.0000000000000000e+00 -3.1999959290381010e+00 -2.7627972472708197e-03 +0.0000000000000000e+00 +9.9999618346840247e-01
-3.3000000000000016e+00 -4.6419989294758253e+00 +0.0000000000000000e+00 -3.2999955353340176e+00 -2.8491346753170186e-03 +0.0000000000000000e+00 +9.9999594120756419e-01
-3.4000000000000017e+00 -4.6417096991374898e+00 +0.0000000000000000e+00 -3.3999951170311404e+00 -2.9354720887791257e-03 +0.0000000000000000e+00 +9.9999569149252654e-01
-3.5000000000000018e+00 -4.6414118350586282e+00 +0.0000000000000000e+00 -3.4999946733840499e+00 -3.0218094854738801e-03 +0.0000000000000000e+00 +9.9999543432329419e-01
-3.6000000000000019e+00 -4.6411053372410302e+00 +0.0000000000000000e+00 -3.5999942036473263e+00 -3.1081468631178558e-03 +0.0000000000000000e+00 +9.9999516969987290e-01
-3.7000000000000020e+00 -4.6407902056867192e+00 +0.0000000000000000e+00 -3.6999937070755515e+00 -3.1944842193274803e-03 +0.0000000000000000e+00 +9.9999489762226923e-01
-3.8000000000000020e+00 -4.6404664403979616e+00 +0.0000000000000000e+00 -3.7999931829233078e+00 -3.2808215516190523e-03 +0.0000000000000000e+00 +9.9999461809049084e-01
-3.9000000000000021e+00 -4.6401340413772783e+00 +0.0000000000000000e+00 -3.8999926304451775e+00 -3.3671588574087610e-03 +0.0000000000000000e+00 +9.9999433110454639e-01
-4.0000000000000018e+00 -4.6397930086274526e+00 +0.0000000000000000e+00 -3.9999920488957450e+00 -3.4534961340127049e-03 +0.0000000000000000e+00 +9.9999403666444553e-01
-4.1000000000000014e+00 -4.6394433421515409e+00 +0.0000000000000000e+00 -4.0999914375295949e+00 -3.5398333786574106e-03 +0.0000000000000000e+00 +9.9999373477019915e-01
-4.2000000000000011e+00 -4.6390850419528782e+00 +0.0000000000000000e+00 -4.1999907956013134e+00 -3.6261705885953831e-03 +0.0000000000000000e+00 +9.9999342542181868e-01
-4.3000000000000007e+00 -4.6387181080350661e+00 +0.0000000000000000e+00 -4.2999901223654877e+00 -3.7125077612206437e-03 +0.0000000000000000e+00 +9.9999310861931590e-01
-4.4000000000000004e+00 -4.6383425404019603e+00 +0.0000000000000000e+00 -4.3999894170767062e+00 -3.7988448940791935e-03 +0.0000000000000000e+00 +9.9999278436270267e-01
-4.5000000000000000e+00 -4.6379583390576533e+00 +0.0000000000000000e+00 -4.4999886789895580e+00 -3.8851819848689686e-03 +0.0000000000000000e+00 +9.9999245265199099e-01
-4.5999999999999996e+00 -4.6375655040064609e+00 +0.0000000000000000e+00 -4.5999879073586349e+00 -3.9715190314397889e-03 +0.0000000000000000e+00 +9.9999211348719286e-01
-4.6999999999999993e+00 -4.6371640352529067e+00 +0.0000000000000000e+00 -4.6999871014385279e+00 -4.0578560317933053e-03 +0.0000000000000000e+00 +9.9999176686832036e-01
-4.7999999999999989e+00 -4.6367539328017049e+00 +0.0000000000000000e+00 -4.7999862604838306e+00 -4.1441929840829415e-03 +0.0000000000000000e+00 +9.9999141279538528e-01
-4.8999999999999986e+00 -4.6363351966577486e+00 +0.0000000000000000e+00 -4.8999853837491365e+00 -4.2305298866138338e-03 +0.0000000000000000e+00 +9.9999105126839927e-01
-4.9999999999999982e+00 -4.6359078268260925e+00 +0.0000000000000000e+00 -4.9999844704890419e+00 -4.3168667378427660e-03 +0.0000000000000000e+00 +9.9999068228737387e-01
-5.0999999999999979e+00 -4.6354718233119367e+00 +0.0000000000000000e+00 -5.0999835199581431e+00 -4.4032035363781030e-03 +0.0000000000000000e+00 +9.9999030585232029e-01
-5.1999999999999975e+00 -4.6350271861206149e+00 +0.0000000000000000e+00 -5.1999825314110382e+00 -4.4895402809797180e-03 +0.0000000000000000e+00 +9.9998992196324921e-01
-5.2999999999999972e+00 -4.6345739152575751e+00 +0.0000000000000000e+00 -5.2999815041023259e+00 -4.5758769705589175e-03 +0.0000000000000000e+00 +9.9998953062017104e-01
-5.3999999999999968e+00 -4.6341120107283684e+00 +0.0000000000000000e+00 -5.3999804372866063e+00 -4.6622136041783654e-03 +0.0000000000000000e+00 +9.9998913182309568e-01
-5.4999999999999964e+00 -4.6336414725386312e+00 +0.0000000000000000e+00 -5.4999793302184790e+00 -4.7485501810519970e-03 +0.0000000000000000e+00 +9.9998872557203244e-01
-5.5999999999999961e+00 -4.6331623006940710e+00 +0.0000000000000000e+00 -5.5999781821525465e+00 -4.8348867005449372e-03 +0.0000000000000000e+00 +9.9998831186699000e-01
-5.6999999999999957e+00 -4.6326744952004510e+00 +0.0000000000000000e+00 -5.6999769923434114e+00 -4.9212231621734090e-03 +0.0000000000000000e+00 +9.9998789070797633e-01
-5.7999999999999954e+00 -4.6321780560635766e+00 +0.0000000000000000e+00 -5.7999757600456761e+00 -5.0075595656046412e-03 +0.0000000000000000e+00 +9.9998746209499867e-01
-5.8999999999999950e+00 -4.6316729832892767e+00 +0.0000000000000000e+00 -5.8999744845139457e+00 -5.0938959106567724e-03 +0.0000000000000000e+00 +9.9998702602806344e-01
-5.9999999999999947e+00 -4.6311592768833920e+00 +0.0000000000000000e+00 -5.9999731650028236e+00 -5.1802321972987527e-03 +0.0000000000000000e+00 +9.9998658250717620e-01
-6.0999999999999943e+00 -4.6306369368517597e+00 +0.0000000000000000e+00 -6.0999718007669159e+00 -5.2665684256411440e-03 +0.0000000000000000e+00 +9.9998613153234150e-01
-6.1999999999999940e+00 -4.6301059632002017e+00 +0.0000000000000000e+00 -6.1999703910608277e+00 -5.3529045958359304e-03 +0.0000000000000000e+00 +9.9998567310356368e-01
-6.2999999999999936e+00 -4.6295663559345277e+00 +0.0000000000000000e+00 -6.2999689351391641e+00 -5.4392407079763422e-03 +0.0000000000000000e+00 +9.9998520722084694e-01
-6.3999999999999932e+00 -4.6290181150605409e+00 +0.0000000000000000e+00 -6.3999674322565321e+00 -5.5255767620877739e-03 +0.0000000000000000e+00 +9.9998473388419573e-01
-6.4999999999999929e+00 -4.6284612405840457e+00 +0.0000000000000000e+00 -6.4999658816675385e+00 -5.6119127581278228e-03 +0.0000000000000000e+00 +9.9998425309361483e-01
-6.5999999999999925e+00 -4.6278957325108543e+00 +0.0000000000000000e+00 -6.5999642826267904e+00 -5.6982486959863280e-03 +0.0000000000000000e+00 +9.9998376484910911e-01
-6.6999999999999922e+00 -4.6273215908467931e+00 +0.0000000000000000e+00 -6.6999626343888963e+00 -5.7845845754854099e-03 +0.0000000000000000e+00 +9.9998326915068370e-01
-6.7999999999999918e+00 -4.6267388155977098e+00 +0.0000000000000000e+00 -6.7999609362084632e+00 -5.8709203963795160e-03 +0.0000000000000000e+00 +9.9998276599834413e-01
-6.8999999999999915e+00 -4.6261474067694808e+00 +0.0000000000000000e+00 -6.8999591873401007e+00 -5.9572561583554661e-03 +0.0000000000000000e+00 +9.9998225539209618e-01
-6.9999999999999911e+00 -4.6255473643680158e+00 +0.0000000000000000e+00 -6.9999573870384184e+00 -6.0435918610325006e-03 +0.0000000000000000e+00 +9.9998173733194595e-01
-7.0999999999999908e+00 -4.6249386883992658e+00 +0.0000000000000000e+00 -7.0999555345580267e+00 -6.1299275039623322e-03 +0.0000000000000000e+00 +9.9998121181790001e-01
-7.1999999999999904e+00 -4.6243213788692321e+00 +0.0000000000000000e+00 -7.1999536291535353e+00 -6.2162630866291991e-03 +0.0000000000000000e+00 +9.9998067884996533e-01
-7.2999999999999901e+00 -4.6236954357839686e+00 +0.0000000000000000e+00 -7.2999516700795564e+00 -6.3025986084499185e-03 +0.0000000000000000e+00 +9.9998013842814926e-01
-7.3999999999999897e+00 -4.6230608591495921e+00 +0.0000000000000000e+00 -7.3999496565907021e+00 -6.3889340687739464e-03 +0.0000000000000000e+00 +9.9997959055245955e-01
-7.4999999999999893e+00 -4.6224176489722879e+00 +0.0000000000000000e+00 -7.4999475879415858e+00 -6.4752694668834378e-03 +0.0000000000000000e+00 +9.9997903522290454e-01
-7.5999999999999890e+00 -4.6217658052583159e+00 +0.0000000000000000e+00 -7.5999454633868213e+00 -6.5616048019933090e-03 +0.0000000000000000e+00 +9.9997847243949312e-01
-7.6999999999999886e+00 -4.6211053280140177e+00 +0.0000000000000000e+00 -7.6999432821810228e+00 -6.6479400732513032e-03 +0.0000000000000000e+00 +9.9997790220223470e-01
-7.7999999999999883e+00 -4.6204362172458247e+00 +0.0000000000000000e+00 -7.7999410435788068e+00 -6.7342752797380561e-03 +0.0000000000000000e+00 +9.9997732451113930e-01
-7.8999999999999879e+00 -4.6197584729602621e+00 +0.0000000000000000e+00 -7.8999387468347901e+00 -6.8206104204671675e-03 +0.0000000000000000e+00 +9.9997673936621745e-01
-7.9999999999999876e+00 -4.6190720951639586e+00 +0.0000000000000000e+00 -7.9999363912035903e+00 -6.9069454943852734e-03 +0.0000000000000000e+00 +9.9997614676748037e-01
-8.0999999999999872e+00 -4.6183770838636500e+00 +0.0000000000000000e+00 -8.0999339759398268e+00 -6.9932805003770438e-03 +0.0000000000000000e+00 +9.9997554671493982e-01
-8.1999999999999869e+00 -4.6176734390661851e+00 +0.0000000000000000e+00 -8.1999315002981188e+00 -7.0796154373194923e-03 +0.0000000000000000e+00 +9.9997493920860803e-01
-8.2999999999999865e+00 -4.6169611607785237e+00 +0.0000000000000000e+00 -8.2999289635330893e+00 -7.1659503041363115e-03 +0.0000000000000000e+00 +9.9997432424849708e-01
-8.3999999999999861e+00 -4.6162402490077294e+00 +0.0000000000000000e+00 -8.3999263648993594e+00 -7.2522850998028047e-03 +0.0000000000000000e+00 +9.9997370183461876e-01
-8.4999999999999858e+00 -4.6155107037609673e+00 +0.0000000000000000e+00 -8.4999237036515538e+00 -7.3386198233458622e-03 +0.0000000000000000e+00 +9.9997307196698459e-01
-8.5999999999999854e+00 -4.6147725250454954e+00 +0.0000000000000000e+00 -8.5999209790442972e+00 -7.4249544738439416e-03 +0.0000000000000000e+00 +9.9997243464560615e-01
-8.6999999999999851e+00 -4.6140257128686626e+00 +0.0000000000000000e+00 -8.6999181903322160e+00 -7.5112890504270436e-03 +0.0000000000000000e+00 +9.9997178987049462e-01
-8.7999999999999847e+00 -4.6132702672379011e+00 +0.0000000000000000e+00 -8.7999153367699385e+00 -7.5976235522766892e-03 +0.0000000000000000e+00 +9.9997113764166090e-01
-8.8999999999999844e+00 -4.6125061881607241e+00 +0.0000000000000000e+00 -8.8999124176120912e+00 -7.6839579786258964e-03 +0.0000000000000000e+00 +9.9997047795911576e-01
-8.9999999999999840e+00 -4.6117334756447166e+00 +0.0000000000000000e+00 -8.9999094321133040e+00 -7.7702923287591543e-03 +0.0000000000000000e+00 +9.9996981082286951e-01
-9.0999999999999837e+00 -4.6109521296975347e+00 +0.0000000000000000e+00 -9.0999063795282087e+00 -7.8566266020123968e-03 +0.0000000000000000e+00 +9.9996913623293215e-01
-9.1999999999999833e+00 -4.6101621503268975e+00 +0.0000000000000000e+00 -9.1999032591114354e+00 -7.9429607977729751e-03 +0.0000000000000000e+00 +9.9996845418931335e-01
-9.2999999999999829e+00 -4.6093635375405819e+00 +0.0000000000000000e+00 -9.2999000701176158e+00 -8.0292949154796307e-03 +0.0000000000000000e+00 +9.9996776469202253e-01
-9.3999999999999826e+00 -4.6085562913464200e+00 +0.0000000000000000e+00 -9.3998968118013835e+00 -8.1156289546224659e-03 +0.0000000000000000e+00 +9.9996706774106858e-01
-9.4999999999999822e+00 -4.6077404117522915e+00 +0.0000000000000000e+00 -9.4998934834173738e+00 -8.2019629147429135e-03 +0.0000000000000000e+00 +9.9996636333646005e-01
-9.5999999999999819e+00 -4.6069158987661192e+00 +0.0000000000000000e+00 -9.5998900842202204e+00 -8.2882967954337073e-03 +0.0000000000000000e+00 +9.9996565147820493e-01
-9.6999999999999815e+00 -4.6060827523958645e+00 +0.0000000000000000e+00 -9.6998866134645603e+00 -8.3746305963388473e-03 +0.0000000000000000e+00 +9.9996493216631099e-01
-9.7999999999999812e+00 -4.6052409726495211e+00 +0.0000000000000000e+00 -9.7998830704050288e+00 -8.4609643171535687e-03 +0.0000000000000000e+00 +9.9996420540078534e-01
-9.8999999999999808e+00 -4.6043905595351120e+00 +0.0000000000000000e+00 -9.8998794542962631e+00 -8.5472979576243086e-03 +0.0000000000000000e+00 +9.9996347118163464e-01
-9.9999999999999805e+00 -4.6035315130606813e+00 +0.0000000000000000e+00 -9.9998757643929022e+00 -8.6336315175486664e-03 +0.0000000000000000e+00 +9.9996272950886500e-01
-1.0099999999999980e+01 -4.6026638332342920e+00 +0.0000000000000000e+00 -1.0099871999949583e+01 -8.7199649967748694e-03 +0.0000000000000000e+00 +9.9996198038248196e-01
-1.0199999999999980e+01 -4.6017875200640193e+00 +0.0000000000000000e+00 -1.0199868160220944e+01 -8.8062983951961403e-03 +0.0000000000000000e+00 +9.9996122380249075e-01
-1.0299999999999979e+01 -4.6009025735579483e+00 +0.0000000000000000e+00 -1.0299864244461627e+01 -8.8926317127450867e-03 +0.0000000000000000e+00 +9.9996045976889592e-01
-1.0399999999999979e+01 -4.6000089937241668e+00 +0.0000000000000000e+00 -1.0399860251926270e+01 -8.9789649493932002e-03 +0.0000000000000000e+00 +9.9995968828170156e-01
-1.0499999999999979e+01 -4.5991067805707653e+00 +0.0000000000000000e+00 -1.0499856181869514e+01 -9.0652981051508649e-03 +0.0000000000000000e+00 +9.9995890934091136e-01
-1.0599999999999978e+01 -4.5981959341058314e+00 +0.0000000000000000e+00 -1.0599852033546000e+01 -9.1516311800673694e-03 +0.0000000000000000e+00 +9.9995812294652830e-01
-1.0699999999999978e+01 -4.5972764543374440e+00 +0.0000000000000000e+00 -1.0699847806210368e+01 -9.2379641742309140e-03 +0.0000000000000000e+00 +9.9995732909855495e-01
-1.0799999999999978e+01 -4.5963483412736732e+00 +0.0000000000000000e+00 -1.0799843499117259e+01 -9.3242970877686262e-03 +0.0000000000000000e+00 +9.9995652779699340e-01
-1.0899999999999977e+01 -4.5954115949225729e+00 +0.0000000000000000e+00 -1.0899839111521313e+01 -9.4106299208465728e-03 +0.0000000000000000e+00 +9.9995571904184488e-01
-1.0999999999999977e+01 -4.5944662152921794e+00 +0.0000000000000000e+00 -1.0999834642677174e+01 -9.4969626736697704e-03 +0.0000000000000000e+00 +9.9995490283311028e-01
-1.1099999999999977e+01 -4.5935122023905057e+00 +0.0000000000000000e+00 -1.1099830091839483e+01 -9.5832953464821992e-03 +0.0000000000000000e+00 +9.9995407917078982e-01
-1.1199999999999976e+01 -4.5925495562255403e+00 +0.0000000000000000e+00 -1.1199825458262879e+01 -9.6696279395668168e-03 +0.0000000000000000e+00 +9.9995324805488306e-01
-1.1299999999999976e+01 -4.5915782768052393e+00 +0.0000000000000000e+00 -1.1299820741202005e+01 -9.7559604532455723e-03 +0.0000000000000000e+00 +9.9995240948538888e-01
-1.1399999999999975e+01 -4.5905983641375263e+00 +0.0000000000000000e+00 -1.1399815939911504e+01 -9.8422928878794200e-03 +0.0000000000000000e+00 +9.9995156346230563e-01
-1.1499999999999975e+01 -4.5896098182302856e+00 +0.0000000000000000e+00 -1.1499811053646013e+01 -9.9286252438683387e-03 +0.0000000000000000e+00 +9.9995070998563074e-01
-1.1599999999999975e+01 -4.5886126390913597e+00 +0.0000000000000000e+00 -1.1599806081660176e+01 -1.0014957521651340e-02 +0.0000000000000000e+00 +9.9994984905536122e-01
-1.1699999999999974e+01 -4.5876068267285461e+00 +0.0000000000000000e+00 -1.1699801023208632e+01 -1.0101289721706491e-02 +0.0000000000000000e+00 +9.9994898067149318e-01
