# trajectory
# s[mm] rx[mm] ry[mm] rz[mm] px[rad] py[rad] pz[rad]
0.0000000000000000e+00 +4.6467000000000001e+00 +0.0000000000000000e+00 +0.0000000000000000e+00 +0.0000000000000000e+00 +0.0000000000000000e+00 +1.0000000000000000e+00
1.0000000000000001e-01 +4.6466957335261974e+00 +0.0000000000000000e+00 +9.9999999878648022e-02 -8.5329470643863694e-05 +0.0000000000000000e+00 +9.9999999635944070e-01
2.0000000000000001e-01 +4.6466829341069422e+00 +0.0000000000000000e+00 +1.9999999902918436e-01 -1.7065890915141698e-04 +0.0000000000000000e+00 +9.9999998543776825e-01
3.0000000000000004e-01 +4.6466616017454179e+00 +0.0000000000000000e+00 +2.9999999672349814e-01 -2.5598831613230438e-04 +0.0000000000000000e+00 +9.9999996723499041e-01
4.0000000000000002e-01 +4.6466317364447498e+00 +0.0000000000000000e+00 +3.9999999223347915e-01 -3.4131769209465399e-04 +0.0000000000000000e+00 +9.9999994175111473e-01
5.0000000000000000e-01 +4.6465933382080191e+00 +0.0000000000000000e+00 +4.9999998483101804e-01 -4.2664703744511206e-04 +0.0000000000000000e+00 +9.9999990898614843e-01
5.9999999999999998e-01 +4.6465464070382705e+00 +0.0000000000000000e+00 +5.9999997378800607e-01 -5.1197635248887254e-04 +0.0000000000000000e+00 +9.9999986894009851e-01
6.9999999999999996e-01 +4.6464909429385246e+00 +0.0000000000000000e+00 +6.9999995837633522e-01 -5.9730563742970214e-04 +0.0000000000000000e+00 +9.9999982161297174e-01
7.9999999999999993e-01 +4.6464269459117844e+00 +0.0000000000000000e+00 +7.9999993786789814e-01 -6.8263489236996037e-04 +0.0000000000000000e+00 +9.9999976700477466e-01
8.9999999999999991e-01 +4.6463544159610501e+00 +0.0000000000000000e+00 +8.9999991153458803e-01 -7.6796411731061521e-04 +0.0000000000000000e+00 +9.9999970511551373e-01
9.9999999999999989e-01 +4.6462733530893257e+00 +0.0000000000000000e+00 +9.9999987864829887e-01 -8.5329331215125361e-04 +0.0000000000000000e+00 +9.9999963594519536e-01
1.0999999999999999e+00 +4.6461837572996298e+00 +0.0000000000000000e+00 +1.0999998384809253e+00 -9.3862247669008786e-04 +0.0000000000000000e+00 +9.9999955949382602e-01
1.2000000000000000e+00 +4.6460856285950074e+00 +0.0000000000000000e+00 +1.1999997903043627e+00 -1.0239516106239565e-03 +0.0000000000000000e+00 +9.9999947576141202e-01
1.3000000000000000e+00 +4.6459789669785385e+00 +0.0000000000000000e+00 +1.2999997333905065e+00 -1.1092807135483214e-03 +0.0000000000000000e+00 +9.9999938474795991e-01
1.4000000000000001e+00 +4.6458637724533478e+00 +0.0000000000000000e+00 +1.3999996670112536e+00 -1.1946097849572588e-03 +0.0000000000000000e+00 +9.9999928645347613e-01
1.5000000000000002e+00 +4.6457400450226176e+00 +0.0000000000000000e+00 +1.4999995904385008e+00 -1.2799388242434474e-03 +0.0000000000000000e+00 +9.9999918087796746e-01
1.6000000000000003e+00 +4.6456077846895933e+00 +0.0000000000000000e+00 +1.5999995029441463e+00 -1.3652678306981501e-03 +0.0000000000000000e+00 +9.9999906802144078e-01
1.7000000000000004e+00 +4.6454669914575986e+00 +0.0000000000000000e+00 +1.6999994038000885e+00 -1.4505968035111922e-03 +0.0000000000000000e+00 +9.9999894788390320e-01
1.8000000000000005e+00 +4.6453176653300421e+00 +0.0000000000000000e+00 +1.7999992922782269e+00 -1.5359257417709338e-03 +0.0000000000000000e+00 +9.9999882046536204e-01
1.9000000000000006e+00 +4.6451598063104296e+00 +0.0000000000000000e+00 +1.8999991676504611e+00 -1.6212546444642386e-03 +0.0000000000000000e+00 +9.9999868576582507e-01
2.0000000000000004e+00 +4.6449934144023723e+00 +0.0000000000000000e+00 +1.9999990291886922e+00 -1.7065835104764378e-03 +0.0000000000000000e+00 +9.9999854378530040e-01
2.1000000000000005e+00 +4.6448184896095981e+00 +0.0000000000000000e+00 +2.0999988761648218e+00 -1.7919123385966291e-03 +0.0000000000000000e+00 +9.9999839452379646e-01
2.2000000000000006e+00 +4.6446350319359579e+00 +0.0000000000000000e+00 +2.1999987078507526e+00 -1.8772411275763761e-03 +0.0000000000000000e+00 +9.9999823798132192e-01
2.3000000000000007e+00 +4.6444430413854283e+00 +0.0000000000000000e+00 +2.2999985235183877e+00 -1.9625698761883900e-03 +0.0000000000000000e+00 +9.9999807415788589e-01
2.4000000000000008e+00 +4.6442425179621063e+00 +0.0000000000000000e+00 +2.3999983224396315e+00 -2.0478985832317882e-03 +0.0000000000000000e+00 +9.9999790305349756e-01
2.5000000000000009e+00 +4.6440334616702073e+00 +0.0000000000000000e+00 +2.4999981038863890e+00 -2.1332272475320015e-03 +0.0000000000000000e+00 +9.9999772466816639e-01
2.6000000000000010e+00 +4.6438158725140628e+00 +0.0000000000000000e+00 +2.5999978671305670e+00 -2.2185558679406773e-03 +0.0000000000000000e+00 +9.9999753900190191e-01
2.7000000000000011e+00 +4.6435897504981192e+00 +0.0000000000000000e+00 +2.6999976114440720e+00 -2.3038844433355726e-03 +0.0000000000000000e+00 +9.9999734605471391e-01
2.8000000000000012e+00 +4.6433550956269327e+00 +0.0000000000000000e+00 +2.7999973360988126e+00 -2.3892129726204385e-03 +0.0000000000000000e+00 +9.9999714582661237e-01
2.9000000000000012e+00 +4.6431119079051681e+00 +0.0000000000000000e+00 +2.8999970403666979e+00 -2.4745414547249008e-03 +0.0000000000000000e+00 +9.9999693831760728e-01
3.0000000000000013e+00 +4.6428601873375959e+00 +0.0000000000000000e+00 +2.9999967235196379e+00 -2.5598698886043283e-03 +0.0000000000000000e+00 +9.9999672352770885e-01
3.1000000000000014e+00 +4.6425999339290893e+00 +0.0000000000000000e+00 +3.0999963848295438e+00 -2.6451982732396966e-03 +0.0000000000000000e+00 +9.9999650145692753e-01
3.2000000000000015e+00 +4.6423311476846232e+00 +0.0000000000000000e+00 +3.1999960235683278e+00 -2.7305266076374426e-03 +0.0000000000000000e+00 +9.9999627210527375e-01
3.3000000000000016e+00 +4.6420538286092690e+00 +0.0000000000000000e+00 +3.2999956390079030e+00 -2.8158548908293122e-03 +0.0000000000000000e+00 +9.9999603547275806e-01
3.4000000000000017e+00 +4.6417679767081959e+00 +0.0000000000000000e+00 +3.3999952304201844e+00 -2.9011831218721993e-03 +0.0000000000000000e+00 +9.9999579155939111e-01
3.5000000000000018e+00 +4.6414735919866636e+00 +0.0000000000000000e+00 +3.4999947970770866e+00 -2.9865112998479775e-03 +0.0000000000000000e+00 +9.9999554036518368e-01
3.6000000000000019e+00 +4.6411706744500245e+00 +0.0000000000000000e+00 +3.5999943382505268e+00 -3.0718394238633245e-03 +0.0000000000000000e+00 +9.9999528189014664e-01
3.7000000000000020e+00 +4.6408592241037185e+00 +0.0000000000000000e+00 +3.6999938532124221e+00 -3.1571674930495385e-03 +0.0000000000000000e+00 +9.9999501613429087e-01
3.8000000000000020e+00 +4.6405392409532702e+00 +0.0000000000000000e+00 +3.7999933412346913e+00 -3.2424955065623448e-03 +0.0000000000000000e+00 +9.9999474309762737e-01
3.9000000000000021e+00 +4.6402107250042892e+00 +0.0000000000000000e+00 +3.8999928015892542e+00 -3.3278234635816988e-03 +0.0000000000000000e+00 +9.9999446278016713e-01
4.0000000000000018e+00 +4.6398736762624635e+00 +0.0000000000000000e+00 +3.9999922335480318e+00 -3.4131513633115767e-03 +0.0000000000000000e+00 +9.9999417518192124e-01
4.1000000000000014e+00 +4.6395280947335618e+00 +0.0000000000000000e+00 +4.0999916363829456e+00 -3.4984792049804906e-03 +0.0000000000000000e+00 +9.9999388030290071e-01
4.2000000000000011e+00 +4.6391739804234273e+00 +0.0000000000000000e+00 +4.1999910093659194e+00 -3.5838069878493307e-03 +0.0000000000000000e+00 +9.9999357814311673e-01
4.3000000000000007e+00 +4.6388113333379755e+00 +0.0000000000000000e+00 +4.2999903517688773e+00 -3.6691347112193648e-03 +0.0000000000000000e+00 +9.9999326870258021e-01
4.4000000000000004e+00 +4.6384401534831889e+00 +0.0000000000000000e+00 +4.3999896628637440e+00 -3.7544623744330354e-03 +0.0000000000000000e+00 +9.9999295198130211e-01
4.5000000000000000e+00 +4.6380604408651145e+00 +0.0000000000000000e+00 +4.4999889419224468e+00 -3.8397899768740393e-03 +0.0000000000000000e+00 +9.9999262797929334e-01
4.5999999999999996e+00 +4.6376721954898592e+00 +0.0000000000000000e+00 +4.5999881882169120e+00 -3.9251175179674186e-03 +0.0000000000000000e+00 +9.9999229669656453e-01
4.6999999999999993e+00 +4.6372754173635844e+00 +0.0000000000000000e+00 +4.6999874010190688e+00 -4.0104449971796637e-03 +0.0000000000000000e+00 +9.9999195813312636e-01
4.7999999999999989e+00 +4.6368701064925029e+00 +0.0000000000000000e+00 +4.7999865796008470e+00 -4.0957724140188202e-03 +0.0000000000000000e+00 +9.9999161228898925e-01
4.8999999999999986e+00 +4.6364562628828745e+00 +0.0000000000000000e+00 +4.8999857232341766e+00 -4.1810997680346148e-03 +0.0000000000000000e+00 +9.9999125916416354e-01
4.9999999999999982e+00 +4.6360338865410036e+00 +0.0000000000000000e+00 +4.9999848311909902e+00 -4.2664270588185817e-03 +0.0000000000000000e+00 +9.9999089875865932e-01
5.0999999999999979e+00 +4.6356029774732308e+00 +0.0000000000000000e+00 +5.0999839027432197e+00 -4.3517542860042058e-03 +0.0000000000000000e+00 +9.9999053107248659e-01
5.1999999999999975e+00 +4.6351635356859333e+00 +0.0000000000000000e+00 +5.1999829371627992e+00 -4.4370814492670730e-03 +0.0000000000000000e+00 +9.9999015610565489e-01
5.2999999999999972e+00 +4.6347155611855175e+00 +0.0000000000000000e+00 +5.2999819337216625e+00 -4.5224085483250315e-03 +0.0000000000000000e+00 +9.9998977385817378e-01
5.3999999999999968e+00 +4.6342590539784165e+00 +0.0000000000000000e+00 +5.3999808916917456e+00 -4.6077355829383625e-03 +0.0000000000000000e+00 +9.9998938433005236e-01
5.4999999999999964e+00 +4.6337940140710847e+00 +0.0000000000000000e+00 +5.4999798103449846e+00 -4.6930625529099622e-03 +0.0000000000000000e+00 +9.9998898752129961e-01
5.5999999999999961e+00 +4.6333204414699942e+00 +0.0000000000000000e+00 +5.5999786889533176e+00 -4.7783894580855305e-03 +0.0000000000000000e+00 +9.9998858343192409e-01
5.6999999999999957e+00 +4.6328383361816314e+00 +0.0000000000000000e+00 +5.6999775267886825e+00 -4.8637162983537763e-03 +0.0000000000000000e+00 +9.9998817206193413e-01
5.7999999999999954e+00 +4.6323476982124898e+00 +0.0000000000000000e+00 +5.7999763231230181e+00 -4.9490430736466254e-03 +0.0000000000000000e+00 +9.9998775341133772e-01
5.8999999999999950e+00 +4.6318485275690691e+00 +0.0000000000000000e+00 +5.8999750772282642e+00 -5.0343697839394432e-03 +0.0000000000000000e+00 +9.9998732748014252e-01
5.9999999999999947e+00 +4.6313408242578680e+00 +0.0000000000000000e+00 +5.9999737883763604e+00 -5.1196964292512656e-03 +0.0000000000000000e+00 +9.9998689426835563e-01
6.0999999999999943e+00 +4.6308245882853827e+00 +0.0000000000000000e+00 +6.0999724558392492e+00 -5.2050230096505543e-03 +0.0000000000000000e+00 +9.9998645377598394e-01
6.1999999999999940e+00 +4.6302998196580960e+00 +0.0000000000000000e+00 +6.1999710788888711e+00 -5.2903495253161124e-03 +0.0000000000000000e+00 +9.9998600600303356e-01
6.2999999999999936e+00 +4.6297665183824659e+00 +0.0000000000000000e+00 +6.2999696567971695e+00 -5.3756759765980081e-03 +0.0000000000000000e+00 +9.9998555094950936e-01
6.3999999999999932e+00 +4.6292246844649050e+00 +0.0000000000000000e+00 +6.3999681888360875e+00 -5.4610023640232902e-03 +0.0000000000000000e+00 +9.9998508861541491e-01
6.4999999999999929e+00 +4.6286743179117664e+00 +0.0000000000000000e+00 +6.4999666742775677e+00 -5.5463286882961923e-03 +0.0000000000000000e+00 +9.9998461900075264e-01
6.5999999999999925e+00 +4.6281154187293216e+00 +0.0000000000000000e+00 +6.5999651123935532e+00 -5.6316549502983381e-03 +0.0000000000000000e+00 +9.9998414210552344e-01
6.6999999999999922e+00 +4.6275479869237470e+00 +0.0000000000000000e+00 +6.6999635024559874e+00 -5.7169811510889576e-03 +0.0000000000000000e+00 +9.9998365792972688e-01
6.7999999999999918e+00 +4.6269720225011035e+00 +0.0000000000000000e+00 +6.7999618437368134e+00 -5.8023072919051073e-03 +0.0000000000000000e+00 +9.9998316647336083e-01
6.8999999999999915e+00 +4.6263875254673188e+00 +0.0000000000000000e+00 +6.8999601355079738e+00 -5.8876333741618991e-03 +0.0000000000000000e+00 +9.9998266773642153e-01
6.9999999999999911e+00 +4.6257944958281705e+00 +0.0000000000000000e+00 +6.9999583770414118e+00 -5.9729593994527347e-03 +0.0000000000000000e+00 +9.9998216171890364e-01
7.0999999999999908e+00 +4.6251929335892683e+00 +0.0000000000000000e+00 +7.0999565676090688e+00 -6.0582853695495473e-03 +0.0000000000000000e+00 +9.9998164842079984e-01
7.1999999999999904e+00 +4.6245828387560355e+00 +0.0000000000000000e+00 +7.1999547064828855e+00 -6.1436112864030491e-03 +0.0000000000000000e+00 +9.9998112784210114e-01
7.2999999999999901e+00 +4.6239642113336918e+00 +0.0000000000000000e+00 +7.2999527929348025e+00 -6.2289371521429878e-03 +0.0000000000000000e+00 +9.9998059998279654e-01
7.3999999999999897e+00 +4.6233370513272343e+00 +0.0000000000000000e+00 +7.3999508262367577e+00 -6.3142629690784062e-03 +0.0000000000000000e+00 +9.9998006484287294e-01
7.4999999999999893e+00 +4.6227013587414207e+00 +0.0000000000000000e+00 +7.4999488056606891e+00 -6.3995887396979109e-03 +0.0000000000000000e+00 +9.9997952242231525e-01
7.5999999999999890e+00 +4.6220571335807499e+00 +0.0000000000000000e+00 +7.5999467304785320e+00 -6.4849144666699480e-03 +0.0000000000000000e+00 +9.9997897272110625e-01
7.6999999999999886e+00 +4.6214043758494467e+00 +0.0000000000000000e+00 +7.6999445999622207e+00 -6.5702401528430834e-03 +0.0000000000000000e+00 +9.9997841573922630e-01
7.7999999999999883e+00 +4.6207430855514406e+00 +0.0000000000000000e+00 +7.7999424133836870e+00 -6.6555658012462920e-03 +0.0000000000000000e+00 +9.9997785147665352e-01
7.8999999999999879e+00 +4.6200732626903500e+00 +0.0000000000000000e+00 +7.8999401700148608e+00 -6.7408914150892509e-03 +0.0000000000000000e+00 +9.9997727993336372e-01
7.9999999999999876e+00 +4.6193949072694620e+00 +0.0000000000000000e+00 +7.9999378691276686e+00 -6.8262169977626403e-03 +0.0000000000000000e+00 +9.9997670110933001e-01
8.0999999999999872e+00 +4.6187080192917183e+00 +0.0000000000000000e+00 +8.0999355099940349e+00 -6.9115425528067497e-03 +0.0000000000000000e+00 +9.9997611500452332e-01
8.1999999999999869e+00 +4.6180125987597096e+00 +0.0000000000000000e+00 +8.1999330918858799e+00 -6.9968680835623244e-03 +0.0000000000000000e+00 +9.9997552161891445e-01
8.2999999999999865e+00 +4.6173086456757213e+00 +0.0000000000000000e+00 +8.2999306140751230e+00 -7.0821935928204530e-03 +0.0000000000000000e+00 +9.9997492095247698e-01
8.3999999999999861e+00 +4.6165961600417873e+00 +0.0000000000000000e+00 +8.3999280758336798e+00 -7.1675190827901435e-03 +0.0000000000000000e+00 +9.9997431300518747e-01
8.4999999999999858e+00 +4.6158751418597506e+00 +0.0000000000000000e+00 +8.4999254764334644e+00 -7.2528445550977287e-03 +0.0000000000000000e+00 +9.9997369777702572e-01
8.5999999999999854e+00 +4.6151455911313208e+00 +0.0000000000000000e+00 +8.5999228151463889e+00 -7.3381700107862458e-03 +0.0000000000000000e+00 +9.9997307526797519e-01
8.6999999999999851e+00 +4.6144075078581315e+00 +0.0000000000000000e+00 +8.6999200912443637e+00 -7.4234954503148006e-03 +0.0000000000000000e+00 +9.9997244547802311e-01
8.7999999999999847e+00 +4.6136608920417999e+00 +0.0000000000000000e+00 +8.7999173039992975e+00 -7.5088208735579103e-03 +0.0000000000000000e+00 +9.9997180840716082e-01
8.8999999999999844e+00 +4.6129057436839851e+00 +0.0000000000000000e+00 +8.8999144526830989e+00 -7.5941462798048290e-03 +0.0000000000000000e+00 +9.9997116405538400e-01
8.9999999999999840e+00 +4.6121420627864476e+00 +0.0000000000000000e+00 +8.9999115365676765e+00 -7.6794716677588510e-03 +0.0000000000000000e+00 +9.9997051242269286e-01
9.0999999999999837e+00 +4.6113698493511048e+00 +0.0000000000000000e+00 +9.0999085549249408e+00 -7.7647970355365940e-03 +0.0000000000000000e+00 +9.9996985350909240e-01
9.1999999999999833e+00 +4.6105891033800939e+00 +0.0000000000000000e+00 +9.1999055070267985e+00 -7.8501223806672678e-03 +0.0000000000000000e+00 +9.9996918731459283e-01
9.2999999999999829e+00 +4.6097998248758270e+00 +0.0000000000000000e+00 +9.2999023921451620e+00 -7.9354477000919167e-03 +0.0000000000000000e+00 +9.9996851383920971e-01
9.3999999999999826e+00 +4.6090020138410530e+00 +0.0000000000000000e+00 +9.3998992095519451e+00 -8.0207729901626487e-03 +0.0000000000000000e+00 +9.9996783308296422e-01
9.4999999999999822e+00 +4.6081956702789135e+00 +0.0000000000000000e+00 +9.4998959585190619e+00 -8.1060982466418432e-03 +0.0000000000000000e+00 +9.9996714504588324e-01
9.5999999999999819e+00 +4.6073807941930047e+00 +0.0000000000000000e+00 +9.5998926383184298e+00 -8.1914234647013379e-03 +0.0000000000000000e+00 +9.9996644972799997e-01
9.6999999999999815e+00 +4.6065573855874344e+00 +0.0000000000000000e+00 +9.6998892482219699e+00 -8.2767486389215966e-03 +0.0000000000000000e+00 +9.9996574712935382e-01
9.7999999999999812e+00 +4.6057254444668816e+00 +0.0000000000000000e+00 +9.7998857875016103e+00 -8.3620737632908605e-03 +0.0000000000000000e+00 +9.9996503724999108e-01
9.8999999999999808e+00 +4.6048849708366575e+00 +0.0000000000000000e+00 +9.8998822554292794e+00 -8.4473988312042791e-03 +0.0000000000000000e+00 +9.9996432008996472e-01
9.9999999999999805e+00 +4.6040359647027618e+00 +0.0000000000000000e+00 +9.9998786512769158e+00 -8.5327238354630224e-03 +0.0000000000000000e+00 +9.9996359564933490e-01
1.0099999999999980e+01 +4.6031784260719446e+00 +0.0000000000000000e+00 +1.0099874974316462e+01 -8.6180487683167138e-03 +0.0000000000000000e+00 +9.9996286392816891e-01
1.0199999999999980e+01 +4.6023123549517395e+00 +0.0000000000000000e+00 +1.0199871223819867e+01 -8.7033736219411656e-03 +0.0000000000000000e+00 +9.9996212492653724e-01
1.0299999999999979e+01 +4.6014377513504447e+00 +0.0000000000000000e+00 +1.0299867399059089e+01 -8.7886983889182372e-03 +0.0000000000000000e+00 +9.9996137864450918e-01
1.0399999999999979e+01 +4.6005546152770771e+00 +0.0000000000000000e+00 +1.0399863499306091e+01 -8.8740230622802209e-03 +0.0000000000000000e+00 +9.9996062508215244e-01
1.0499999999999979e+01 +4.5996629467413275e+00 +0.0000000000000000e+00 +1.0499859523832844e+01 -8.9593476355105083e-03 +0.0000000000000000e+00 +9.9995986423953287e-01
1.0599999999999978e+01 +4.5987627457535156e+00 +0.0000000000000000e+00 +1.0599855471911324e+01 -9.0446721025442735e-03 +0.0000000000000000e+00 +9.9995909611671441e-01
1.0699999999999978e+01 +4.5978540123245457e+00 +0.0000000000000000e+00 +1.0699851342813515e+01 -9.1299964577691763e-03 +0.0000000000000000e+00 +9.9995832071375867e-01
1.0799999999999978e+01 +4.5969367464658610e+00 +0.0000000000000000e+00 +1.0799847135811406e+01 -9.2153206960260761e-03 +0.0000000000000000e+00 +9.9995753803072485e-01
1.0899999999999977e+01 +4.5960109481893969e+00 +0.0000000000000000e+00 +1.0899842850176993e+01 -9.3006448126097749e-03 +0.0000000000000000e+00 +9.9995674806766954e-01
1.0999999999999977e+01 +4.5950766175075373e+00 +0.0000000000000000e+00 +1.0999838485182275e+01 -9.3859688032697716e-03 +0.0000000000000000e+00 +9.9995595082464661e-01
1.1099999999999977e+01 +4.5941337544330674e+00 +0.0000000000000000e+00 +1.1099834040099259e+01 -9.4712926642110291e-03 +0.0000000000000000e+00 +9.9995514630170679e-01
1.1199999999999976e+01 +4.5931823589791305e+00 +0.0000000000000000e+00 +1.1199829514199955e+01 -9.5566163920947720e-03 +0.0000000000000000e+00 +9.9995433449889770e-01
1.1299999999999976e+01 +4.5922224311591799e+00 +0.0000000000000000e+00 +1.1299824906756378e+01 -9.6419399840392897e-03 +0.0000000000000000e+00 +9.9995351541626332e-01
1.1399999999999975e+01 +4.5912539709869353e+00 +0.0000000000000000e+00 +1.1399820217040547e+01 -9.7272634376207624e-03 +0.0000000000000000e+00 +9.9995268905384427e-01
1.1499999999999975e+01 +4.5902769784763340e+00 +0.0000000000000000e+00 +1.1499815444324488e+01 -9.8125867508741024e-03 +0.0000000000000000e+00 +9.9995185541167708e-01
1.1599999999999975e+01 +4.5892914536414890e+00 +0.0000000000000000e+00 +1.1599810587880226e+01 -9.8979099222938158e-03 +0.0000000000000000e+00 +9.9995101448979451e-01
1.1699999999999974e+01 +4.5882973964966389e+00 +0.0000000000000000e+00 +1.1699805646979790e+01 -9.9832329508348795e-03 +0.0000000000000000e+00 +9.9995016628822475e-01
1.1799999999999974e+01 +4.5872948070561046e+00 +0.0000000000000000e+00 +1.1799800620895216e+01 -1.0068555835913633e-02 +0.0000000000000000e+00 +9.9994931080699190e-01
