# field on trajectory
# s[mm] rx[mm] ry[mm] rz[mm] bx[T] by[T] bz[T]
0.0000000000000000e+00 +4.6467000000000001e+00 +0.0000000000000000e+00 +0.0000000000000000e+00 +2.3592276038687129e-02 -4.3383055217200439e-01 +3.0626531683018042e-03
1.0000000000000001e-01 +4.6466956819447409e+00 +0.0000000000000000e+00 +9.9999999875695994e-02 +2.3592229651994062e-02 -4.3383054530871462e-01 +3.0626284575919782e-03
2.0000000000000001e-01 +4.6466827277791118e+00 +0.0000000000000000e+00 +1.9999999900556795e-01 +2.3592178922279650e-02 -4.3383053127589249e-01 +3.0626054250252640e-03
3.0000000000000004e-01 +4.6466611375034867e+00 +0.0000000000000000e+00 +2.9999999664379190e-01 +2.3592124178779449e-02 -4.3383051096970504e-01 +3.0625839458807685e-03
4.0000000000000002e-01 +4.6466309111184296e+00 +0.0000000000000000e+00 +3.9999999204454406e-01 +2.3592065750709310e-02 -4.3383048528624724e-01 +3.0625638954609306e-03
5.0000000000000000e-01 +4.6465920486246759e+00 +0.0000000000000000e+00 +4.9999998446200067e-01 +2.3592003967256966e-02 -4.3383045512154361e-01 +3.0625451490854092e-03
5.9999999999999998e-01 +4.6465445500231146e+00 +0.0000000000000000e+00 +5.9999997315033826e-01 +2.3591939157573835e-02 -4.3383042137155248e-01 +3.0625275820849751e-03
6.9999999999999996e-01 +4.6464884153147699e+00 +0.0000000000000000e+00 +6.9999995736373366e-01 +2.3591871650766680e-02 -4.3383038493216902e-01 +3.0625110697954090e-03
7.9999999999999993e-01 +4.6464236445007838e+00 +0.0000000000000000e+00 +7.9999993635636379e-01 +2.3591801775889366e-02 -4.3383034669922893e-01 +3.0624954875513814e-03
8.9999999999999991e-01 +4.6463502375824000e+00 +0.0000000000000000e+00 +8.9999990938240582e-01 +2.3591729861934540e-02 -4.3383030756851143e-01 +3.0624807106803542e-03
9.9999999999999989e-01 +4.6462681945609434e+00 +0.0000000000000000e+00 +9.9999987569603732e-01 +2.3591656237825408e-02 -4.3383026843574263e-01 +3.0624666144964726e-03
1.0999999999999999e+00 +4.6461775154378033e+00 +0.0000000000000000e+00 +1.0999998345514359e+00 +2.3591581232407368e-02 -4.3383023019659955e-01 +3.0624530742944548e-03
1.2000000000000000e+00 +4.6460782002144150e+00 +0.0000000000000000e+00 +1.1999997852027797e+00 +2.3591505174439777e-02 -4.3383019374671222e-01 +3.0624399653434958e-03
1.3000000000000000e+00 +4.6459702488922439e+00 +0.0000000000000000e+00 +1.2999997269042469e+00 +2.3591428392587713e-02 -4.3383015998166802e-01 +3.0624271628811655e-03
1.4000000000000001e+00 +4.6458536614727661e+00 +0.0000000000000000e+00 +1.3999996589100159e+00 +2.3591351215413600e-02 -4.3383012979701463e-01 +3.0624145421073085e-03
1.5000000000000002e+00 +4.6457284379574499e+00 +0.0000000000000000e+00 +1.4999995804742652e+00 +2.3591273971369002e-02 -4.3383010408826334e-01 +3.0624019781779490e-03
1.6000000000000003e+00 +4.6455945783477404e+00 +0.0000000000000000e+00 +1.5999994908511734e+00 +2.3591196988786284e-02 -4.3383008375089172e-01 +3.0623893461992021e-03
1.7000000000000004e+00 +4.6454520826450381e+00 +0.0000000000000000e+00 +1.6999993892949194e+00 +2.3591120595870388e-02 -4.3383006968034760e-01 +3.0623765212211894e-03
1.8000000000000005e+00 +4.6453009508506851e+00 +0.0000000000000000e+00 +1.7999992750596818e+00 +2.3591045120690508e-02 -4.3383006277205244e-01 +3.0623633782319516e-03
1.9000000000000006e+00 +4.6451411829659444e+00 +0.0000000000000000e+00 +1.8999991473996394e+00 +2.3590970891171778e-02 -4.3383006392140261e-01 +3.0623497921513699e-03
2.0000000000000004e+00 +4.6449727789919839e+00 +0.0000000000000000e+00 +1.9999990055689707e+00 +2.3590898235087056e-02 -4.3383007402377521e-01 +3.0623356378251007e-03
2.1000000000000005e+00 +4.6447957389298562e+00 +0.0000000000000000e+00 +2.0999988488218539e+00 +2.3590827437825986e-02 -4.3383009363908537e-01 +3.0623208026982194e-03
2.2000000000000006e+00 +4.6446100627804938e+00 +0.0000000000000000e+00 +2.1999986764124673e+00 +2.3590758615791352e-02 -4.3383012198542520e-01 +3.0623052248810491e-03
2.3000000000000007e+00 +4.6444157505447183e+00 +0.0000000000000000e+00 +2.2999984875949884e+00 +2.3590691843208007e-02 -4.3383015794542912e-01 +3.0622888551627252e-03
2.4000000000000008e+00 +4.6442128022232652e+00 +0.0000000000000000e+00 +2.3999982816235943e+00 +2.3590627194384615e-02 -4.3383020040174536e-01 +3.0622716443427997e-03
2.5000000000000009e+00 +4.6440012178168049e+00 +0.0000000000000000e+00 +2.4999980577524625e+00 +2.3590564743732154e-02 -4.3383024823703970e-01 +3.0622535432360499e-03
2.6000000000000010e+00 +4.6437809973259654e+00 +0.0000000000000000e+00 +2.5999978152357697e+00 +2.3590504565782596e-02 -4.3383030033400216e-01 +3.0622345026772879e-03
2.7000000000000011e+00 +4.6435521407513534e+00 +0.0000000000000000e+00 +2.6999975533276919e+00 +2.3590446735207396e-02 -4.3383035557535171e-01 +3.0622144735261664e-03
2.8000000000000012e+00 +4.6433146480935781e+00 +0.0000000000000000e+00 +2.7999972712824057e+00 +2.3590391326836137e-02 -4.3383041284384188e-01 +3.0621934066719821e-03
2.9000000000000012e+00 +4.6430685193532728e+00 +0.0000000000000000e+00 +2.8999969683540869e+00 +2.3590338415675059e-02 -4.3383047102226624e-01 +3.0621712530384832e-03
3.0000000000000013e+00 +4.6428137545311170e+00 +0.0000000000000000e+00 +2.9999966437969112e+00 +2.3590288076925581e-02 -4.3383052899346308e-01 +3.0621479635886614e-03
3.1000000000000014e+00 +4.6425503536278585e+00 +0.0000000000000000e+00 +3.0999962968650543e+00 +2.3590240386002912e-02 -4.3383058564032240e-01 +3.0621234893295529e-03
3.2000000000000015e+00 +4.6422783166443358e+00 +0.0000000000000000e+00 +3.1999959268126914e+00 +2.3590195418554533e-02 -4.3383063984579040e-01 +3.0620977813170329e-03
3.3000000000000016e+00 +4.6419976435815009e+00 +0.0000000000000000e+00 +3.2999955328939987e+00 +2.3590153250478710e-02 -4.3383069049287493e-01 +3.0620707906605970e-03
3.4000000000000017e+00 +4.6417083344404402e+00 +0.0000000000000000e+00 +3.3999951143631515e+00 +2.3590113957943006e-02 -4.3383073646465176e-01 +3.0620424685281603e-03
3.5000000000000018e+00 +4.6414103892223988e+00 +0.0000000000000000e+00 +3.4999946704743254e+00 +2.3590077617402797e-02 -4.3383077664427022e-01 +3.0620127661508314e-03
3.6000000000000019e+00 +4.6411038079288005e+00 +0.0000000000000000e+00 +3.5999942004816972e+00 +2.3590044305619701e-02 -4.3383080991495848e-01 +3.0619816348276862e-03
3.7000000000000020e+00 +4.6407885905612716e+00 +0.0000000000000000e+00 +3.6999937036394428e+00 +2.3590014099680090e-02 -4.3383083516002968e-01 +3.0619490259305502e-03
3.8000000000000020e+00 +4.6404647371216621e+00 +0.0000000000000000e+00 +3.7999931792017398e+00 +2.3589987077013506e-02 -4.3383085126288790e-01 +3.0619148909087658e-03
3.9000000000000021e+00 +4.6401322476120690e+00 +0.0000000000000000e+00 +3.8999926264227662e+00 +2.3589963315411071e-02 -4.3383085710703356e-01 +3.0618791812939495e-03
4.0000000000000018e+00 +4.6397911220348576e+00 +0.0000000000000000e+00 +3.9999920445567003e+00 +2.3589942893043954e-02 -4.3383085157607015e-01 +3.0618418487047545e-03
4.1000000000000014e+00 +4.6394413603926834e+00 +0.0000000000000000e+00 +4.0999914328577214e+00 +2.3589925796390077e-02 -4.3383083391189059e-01 +3.0618028639055567e-03
4.2000000000000011e+00 +4.6390829626885060e+00 +0.0000000000000000e+00 +4.1999907905800109e+00 +2.3589911643728260e-02 -4.3383080478953012e-01 +3.0617622739540374e-03
4.3000000000000007e+00 +4.6387159289255759e+00 +0.0000000000000000e+00 +4.2999901169777504e+00 +2.3589899961180688e-02 -4.3383076524238712e-01 +3.0617201449671173e-03
4.4000000000000004e+00 +4.6383402591074159e+00 +0.0000000000000000e+00 +4.3999894113051230e+00 +2.3589890274799085e-02 -4.3383071630386083e-01 +3.0616765430470845e-03
4.5000000000000000e+00 +4.6379559532378005e+00 +0.0000000000000000e+00 +4.4999886728163130e+00 +2.3589882110554329e-02 -4.3383065900734902e-01 +3.0616315342797077e-03
4.5999999999999996e+00 +4.6375630113207347e+00 +0.0000000000000000e+00 +4.5999879007655053e+00 +2.3589874994325872e-02 -4.3383059438624733e-01 +3.0615851847323535e-03
4.6999999999999993e+00 +4.6371614333604336e+00 +0.0000000000000000e+00 +4.6999870944068869e+00 +2.3589868451891389e-02 -4.3383052347394813e-01 +3.0615375604521075e-03
4.7999999999999989e+00 +4.6367512193613027e+00 +0.0000000000000000e+00 +4.7999862529946453e+00 +2.3589862008916274e-02 -4.3383044730383807e-01 +3.0614887274638979e-03
4.8999999999999986e+00 +4.6363323693279161e+00 +0.0000000000000000e+00 +4.8999853757829692e+00 +2.3589855190943324e-02 -4.3383036690929772e-01 +3.0614387517686296e-03
4.9999999999999982e+00 +4.6359048832649963e+00 +0.0000000000000000e+00 +4.9999844620260490e+00 +2.3589847523382286e-02 -4.3383028332369916e-01 +3.0613876993413158e-03
5.0999999999999979e+00 +4.6354687611773935e+00 +0.0000000000000000e+00 +5.0999835109780740e+00 +2.3589838531499579e-02 -4.3383019758040564e-01 +3.0613356361292227e-03
5.1999999999999975e+00 +4.6350240030700647e+00 +0.0000000000000000e+00 +5.1999825218932365e+00 +2.3589827740407930e-02 -4.3383011071276867e-01 +3.0612826280500167e-03
5.2999999999999972e+00 +4.6345706089480556e+00 +0.0000000000000000e+00 +5.2999814940257286e+00 +2.3589814675056102e-02 -4.3383002375412766e-01 +3.0612287409899097e-03
5.3999999999999968e+00 +4.6341085788164769e+00 +0.0000000000000000e+00 +5.3999804266297433e+00 +2.3589798860218638e-02 -4.3382993773780754e-01 +3.0611740408018253e-03
5.4999999999999964e+00 +4.6336379126804852e+00 +0.0000000000000000e+00 +5.4999793189594746e+00 +2.3589779820485650e-02 -4.3382985369711802e-01 +3.0611185933035576e-03
5.5999999999999961e+00 +4.6331586105452622e+00 +0.0000000000000000e+00 +5.5999781702691172e+00 +2.3589757080252537e-02 -4.3382977266535094e-01 +3.0610624642759422e-03
5.6999999999999957e+00 +4.6326706724159932e+00 +0.0000000000000000e+00 +5.6999769798128650e+00 +2.3589730163709962e-02 -4.3382969567577978e-01 +3.0610057194610349e-03
5.7999999999999954e+00 +4.6321740982978490e+00 +0.0000000000000000e+00 +5.7999757468449138e+00 +2.3589698594833588e-02 -4.3382962376165651e-01 +3.0609484245602914e-03
5.8999999999999950e+00 +4.6316688881959625e+00 +0.0000000000000000e+00 +5.8999744706194592e+00 +2.3589661897374097e-02 -4.3382955795621131e-01 +3.0608906452327602e-03
5.9999999999999947e+00 +4.6311550421154095e+00 +0.0000000000000000e+00 +5.9999731503906961e+00 +2.3589619594847028e-02 -4.3382949929265008e-01 +3.0608324470932781e-03
6.0999999999999943e+00 +4.6306325600611897e+00 +0.0000000000000000e+00 +6.0999717854128193e+00 +2.3589571380780713e-02 -4.3382944854744354e-01 +3.0607739077061929e-03
6.1999999999999940e+00 +4.6301014420382103e+00 +0.0000000000000000e+00 +6.1999703749400243e+00 +2.3589517630055023e-02 -4.3382940546938648e-01 +3.0607151526375696e-03
6.2999999999999936e+00 +4.6295616880512904e+00 +0.0000000000000000e+00 +6.2999689182265062e+00 +2.3589458887890775e-02 -4.3382936955017148e-01 +3.0606563194994327e-03
6.3999999999999932e+00 +4.6290132981051721e+00 +0.0000000000000000e+00 +6.3999674145264596e+00 +2.3589395699316573e-02 -4.3382934028151593e-01 +3.0605975459434909e-03
6.4999999999999929e+00 +4.6284562722045282e+00 +0.0000000000000000e+00 +6.4999658630940793e+00 +2.3589328609161433e-02 -4.3382931715516332e-01 +3.0605389696626868e-03
6.5999999999999925e+00 +4.6278906103539752e+00 +0.0000000000000000e+00 +6.5999642631835593e+00 +2.3589258162047478e-02 -4.3382929966288186e-01 +3.0604807283927276e-03
6.6999999999999922e+00 +4.6273163125580803e+00 +0.0000000000000000e+00 +6.6999626140490935e+00 +2.3589184902382595e-02 -4.3382928729646592e-01 +3.0604229599136166e-03
6.7999999999999918e+00 +4.6267333788213740e+00 +0.0000000000000000e+00 +6.7999609149448759e+00 +2.3589109374353046e-02 -4.3382927954773592e-01 +3.0603658020511666e-03
6.8999999999999915e+00 +4.6261418091483586e+00 +0.0000000000000000e+00 +6.8999591651251002e+00 +2.3589032121916088e-02 -4.3382927590853793e-01 +3.0603093926784980e-03
6.9999999999999911e+00 +4.6255416035435193e+00 +0.0000000000000000e+00 +6.9999573638439605e+00 +2.3588953688792550e-02 -4.3382927587074377e-01 +3.0602538697175425e-03
7.0999999999999908e+00 +4.6249327620113352e+00 +0.0000000000000000e+00 +7.0999555103556506e+00 +2.3588874618459408e-02 -4.3382927892625128e-01 +3.0601993711405107e-03
7.1999999999999904e+00 +4.6243152845562863e+00 +0.0000000000000000e+00 +7.1999536039143646e+00 +2.3588795454142310e-02 -4.3382928456698444e-01 +3.0601460349713762e-03
7.2999999999999901e+00 +4.6236891711828667e+00 +0.0000000000000000e+00 +7.2999516437742962e+00 +2.3588716738808101e-02 -4.3382929228489198e-01 +3.0600939992873237e-03
7.3999999999999897e+00 +4.6230544218955929e+00 +0.0000000000000000e+00 +7.3999496291896394e+00 +2.3588639015157311e-02 -4.3382930157194921e-01 +3.0600434022201961e-03
7.4999999999999893e+00 +4.6224110366990159e+00 +0.0000000000000000e+00 +7.4999475594145881e+00 +2.3588562825616610e-02 -4.3382931192015528e-01 +3.0599943819579257e-03
7.5999999999999890e+00 +4.6217590155977284e+00 +0.0000000000000000e+00 +7.5999454337033363e+00 +2.3588488712331268e-02 -4.3382932282153597e-01 +3.0599470767459593e-03
7.6999999999999886e+00 +4.6210983585963774e+00 +0.0000000000000000e+00 +7.6999432513100787e+00 +2.3588417217157570e-02 -4.3382933376814048e-01 +3.0599016248886611e-03
7.7999999999999883e+00 +4.6204290656996729e+00 +0.0000000000000000e+00 +7.7999410114890111e+00 +2.3588348881655164e-02 -4.3382934425204256e-01 +3.0598581647506987e-03
7.8999999999999879e+00 +4.6197511369123987e+00 +0.0000000000000000e+00 +7.8999387134943282e+00 +2.3588284247079476e-02 -4.3382935376534021e-01 +3.0598168347584324e-03
7.9999999999999876e+00 +4.6190645722394219e+00 +0.0000000000000000e+00 +7.9999363565802266e+00 +2.3588223854373983e-02 -4.3382936180015425e-01 +3.0597777734012741e-03
8.0999999999999872e+00 +4.6183693716857048e+00 +0.0000000000000000e+00 +8.0999339400009021e+00 +2.3588168120633465e-02 -4.3382936788571669e-01 +3.0597410719888475e-03
8.1999999999999869e+00 +4.6176655352563118e+00 +0.0000000000000000e+00 +8.1999314630105520e+00 +2.3588116967781458e-02 -4.3382937169996744e-01 +3.0597066324707101e-03
8.2999999999999865e+00 +4.6169530629564166e+00 +0.0000000000000000e+00 +8.2999289248633747e+00 +2.3588070194010963e-02 -4.3382937295823920e-01 +3.0596743091931286e-03
8.3999999999999861e+00 +4.6162319547913082e+00 +0.0000000000000000e+00 +8.3999263248135687e+00 +2.3588027597852192e-02 -4.3382937137604571e-01 +3.0596439562958302e-03
8.4999999999999858e+00 +4.6155022107663966e+00 +0.0000000000000000e+00 +8.4999236621153340e+00 +2.3587988978185273e-02 -4.3382936666908661e-01 +3.0596154277054565e-03
8.5999999999999854e+00 +4.6147638308872185e+00 +0.0000000000000000e+00 +8.5999209360228708e+00 +2.3587954134252905e-02 -4.3382935855325389e-01 +3.0595885771290150e-03
8.6999999999999851e+00 +4.6140168151594434e+00 +0.0000000000000000e+00 +8.6999181457903809e+00 +2.3587922865673086e-02 -4.3382934674463725e-01 +3.0595632580473369e-03
8.7999999999999847e+00 +4.6132611635888781e+00 +0.0000000000000000e+00 +8.7999152906720663e+00 +2.3587894972451735e-02 -4.3382933095952864e-01 +3.0595393237085326e-03
8.8999999999999844e+00 +4.6124968761814724e+00 +0.0000000000000000e+00 +8.8999123699221308e+00 +2.3587870254995424e-02 -4.3382931091442972e-01 +3.0595166271214559e-03
8.9999999999999840e+00 +4.6117239529433265e+00 +0.0000000000000000e+00 +8.9999093827947796e+00 +2.3587848514124106e-02 -4.3382928632605594e-01 +3.0594950210491639e-03
9.0999999999999837e+00 +4.6109423938806948e+00 +0.0000000000000000e+00 +9.0999063285442201e+00 +2.3587829551083739e-02 -4.3382925691134377e-01 +3.0594743580023872e-03
9.1999999999999833e+00 +4.6101521989999927e+00 +0.0000000000000000e+00 +9.1999032064246595e+00 +2.3587813167559094e-02 -4.3382922238745603e-01 +3.0594544902329979e-03
9.2999999999999829e+00 +4.6093533683078007e+00 +0.0000000000000000e+00 +9.2999000156903051e+00 +2.3587799165686398e-02 -4.3382918247178726e-01 +3.0594352697274779e-03
9.3999999999999826e+00 +4.6085459018108725e+00 +0.0000000000000000e+00 +9.3998967555953694e+00 +2.3587787348066061e-02 -4.3382913688197033e-01 +3.0594165482004010e-03
9.4999999999999822e+00 +4.6077297995161377e+00 +0.0000000000000000e+00 +9.4998934253940650e+00 +2.3587777517775452e-02 -4.3382908533588305e-01 +3.0593981770879073e-03
9.5999999999999819e+00 +4.6069050614307097e+00 +0.0000000000000000e+00 +9.5998900243406062e+00 +2.3587769478381572e-02 -4.3382902755165254e-01 +3.0593800075411804e-03
9.6999999999999815e+00 +4.6060716875618901e+00 +0.0000000000000000e+00 +9.6998865516892074e+00 +2.3587763033953817e-02 -4.3382896324766351e-01 +3.0593618904199418e-03
9.7999999999999812e+00 +4.6052296779171753e+00 +0.0000000000000000e+00 +9.7998830066940883e+00 +2.3587757989076710e-02 -4.3382889214256243e-01 +3.0593436762859304e-03
9.8999999999999808e+00 +4.6043790325042604e+00 +0.0000000000000000e+00 +9.8998793886094667e+00 +2.3587754148862706e-02 -4.3382881395526607e-01 +3.0593252153963998e-03
9.9999999999999805e+00 +4.6035197513310475e+00 +0.0000000000000000e+00 +9.9998756966895659e+00 +2.3587751318964841e-02 -4.3382872840496600e-01 +3.0593063576976097e-03
1.0099999999999980e+01 +4.6026518344056475e+00 +0.0000000000000000e+00 +1.0099871930188611e+01 +2.3587749296007560e-02 -4.3382863538272681e-01 +3.0592869894717615e-03
1.0199999999999980e+01 +4.6017752817363844e+00 +0.0000000000000000e+00 +1.0199868088360827e+01 +2.3587747838494329e-02 -4.3382853546864025e-01 +3.0592671440521223e-03
1.0299999999999979e+01 +4.6008900933317838e+00 +0.0000000000000000e+00 +1.0299864170460443e+01 +2.3587746695252064e-02 -4.3382842941543531e-01 +3.0592468919646179e-03
1.0399999999999979e+01 +4.5999962692005569e+00 +0.0000000000000000e+00 +1.0399860175741692e+01 +2.3587745615028268e-02 -4.3382831797554788e-01 +3.0592263040623317e-03
1.0499999999999979e+01 +4.5990938093515874e+00 +0.0000000000000000e+00 +1.0499856103458804e+01 +2.3587744346487863e-02 -4.3382820190111110e-01 +3.0592054515349762e-03
1.0599999999999978e+01 +4.5981827137939151e+00 +0.0000000000000000e+00 +1.0599851952866015e+01 +2.3587742638210004e-02 -4.3382808194394773e-01 +3.0591844059183805e-03
1.0699999999999978e+01 +4.5972629825367211e+00 +0.0000000000000000e+00 +1.0699847723217562e+01 +2.3587740238684946e-02 -4.3382795885556125e-01 +3.0591632391039746e-03
1.0799999999999978e+01 +4.5963346155893143e+00 +0.0000000000000000e+00 +1.0799843413767684e+01 +2.3587736896310846e-02 -4.3382783338712749e-01 +3.0591420233483046e-03
1.0899999999999977e+01 +4.5953976129611158e+00 +0.0000000000000000e+00 +1.0899839023770621e+01 +2.3587732359390701e-02 -4.3382770628948591e-01 +3.0591208312825413e-03
1.0999999999999977e+01 +4.5944519746616415e+00 +0.0000000000000000e+00 +1.0999834552480616e+01 +2.3587726376129173e-02 -4.3382757831313140e-01 +3.0590997359220130e-03
1.1099999999999977e+01 +4.5934977007004907e+00 +0.0000000000000000e+00 +1.1099829999151911e+01 +2.3587718694629427e-02 -4.3382745020820601e-01 +3.0590788106757533e-03
1.1199999999999976e+01 +4.5925347910873295e+00 +0.0000000000000000e+00 +1.1199825363038752e+01 +2.3587709062890091e-02 -4.3382732272448998e-01 +3.0590581293560471e-03
1.1299999999999976e+01 +4.5915632458318756e+00 +0.0000000000000000e+00 +1.1299820643395384e+01 +2.3587697228802103e-02 -4.3382719661139335e-01 +3.0590377661880068e-03
1.1399999999999975e+01 +4.5905830649438837e+00 +0.0000000000000000e+00 +1.1399815839476053e+01 +2.3587682940145623e-02 -4.3382707261794873e-01 +3.0590177958191487e-03
1.1499999999999975e+01 +4.5895942484331309e+00 +0.0000000000000000e+00 +1.1499810950535009e+01 +2.3587665944586951e-02 -4.3382695149280093e-01 +3.0589982933289885e-03
1.1599999999999975e+01 +4.5885967963094023e+00 +0.0000000000000000e+00 +1.1599805975826499e+01 +2.3587645989675454e-02 -4.3382683398420002e-01 +3.0589793342386509e-03
1.1699999999999974e+01 +4.5875907085824750e+00 +0.0000000000000000e+00 +1.1699800914604772e+01 +2.3587622822840486e-02 -4.3382672083999280e-01 +3.0589609945204936e-03
1.1799999999999974e+01 +4.5865759852621029e+00 +0.0000000000000000e+00 +1.1799795766124078e+01 +2.3587596191388324e-02 -4.3382661280761387e-01 +3.0589433506077379e-03
