# trajectory
# s[mm] rx[mm] ry[mm] rz[mm] px[rad] py[rad] pz[rad]
0.0000000000000000e+00 +4.6467000000000001e+00 +0.0000000000000000e+00 +0.0000000000000000e+00 +0.0000000000000000e+00 +0.0000000000000000e+00 +1.0000000000000000e+00
-1.0000000000000001e-01 +4.6466943741791251e+00 +0.0000000000000000e+00 -9.9999999789000926e-02 +1.1251641772818023e-04 +0.0000000000000000e+00 +9.9999999367002790e-01
-2.0000000000000001e-01 +4.6466774967164461e+00 +0.0000000000000000e+00 -1.9999999831200743e-01 +2.2503283571972331e-04 +0.0000000000000000e+00 +9.9999997468011115e-01
-3.0000000000000004e-01 +4.6466493676120439e+00 +0.0000000000000000e+00 -2.9999999430302504e-01 +3.3754925184133281e-04 +0.0000000000000000e+00 +9.9999994303024975e-01
-4.0000000000000002e-01 +4.6466099868662107e+00 +0.0000000000000000e+00 -3.9999998649605928e-01 +4.5006566399846231e-04 +0.0000000000000000e+00 +9.9999989872044404e-01
-5.0000000000000000e-01 +4.6465593544794457e+00 +0.0000000000000000e+00 -4.9999997362511572e-01 +5.6258207013528566e-04 +0.0000000000000000e+00 +9.9999984175069478e-01
-5.9999999999999998e-01 +4.6464974704524522e+00 +0.0000000000000000e+00 -5.9999995442420018e-01 +6.7509846823467006e-04 +0.0000000000000000e+00 +9.9999977212100322e-01
-6.9999999999999996e-01 +4.6464243347861327e+00 +0.0000000000000000e+00 -6.9999992762731844e-01 +7.8761485631815209e-04 +0.0000000000000000e+00 +9.9999968983137100e-01
-7.9999999999999993e-01 +4.6463399474815867e+00 +0.0000000000000000e+00 -7.9999989196847654e-01 +9.0013123244591688e-04 +0.0000000000000000e+00 +9.9999959488180012e-01
-8.9999999999999991e-01 +4.6462443085401057e+00 +0.0000000000000000e+00 -8.9999984618168061e-01 +1.0126475947167799e-03 +0.0000000000000000e+00 +9.9999948727229304e-01
-9.9999999999999989e-01 +4.6461374179631676e+00 +0.0000000000000000e+00 -9.9999978900093733e-01 +1.1251639412681726e-03 +0.0000000000000000e+00 +9.9999936700285230e-01
-1.0999999999999999e+00 +4.6460192757524368e+00 +0.0000000000000000e+00 -1.0999997191602533e+00 +1.2376802702761291e-03 +0.0000000000000000e+00 +9.9999923407348101e-01
-1.2000000000000000e+00 +4.6458898819097572e+00 +0.0000000000000000e+00 -1.1999996353936357e+00 +1.3501965799552779e-03 +0.0000000000000000e+00 +9.9999908848418240e-01
-1.3000000000000000e+00 +4.6457492364371484e+00 +0.0000000000000000e+00 -1.2999995364350923e+00 +1.4627128685588357e-03 +0.0000000000000000e+00 +9.9999893023496000e-01
-1.4000000000000001e+00 +4.6455973393368044e+00 +0.0000000000000000e+00 -1.3999994210186304e+00 +1.5752291343786031e-03 +0.0000000000000000e+00 +9.9999875932581761e-01
-1.5000000000000002e+00 +4.6454341906110876e+00 +0.0000000000000000e+00 -1.4999992878782584e+00 +1.6877453757449654e-03 +0.0000000000000000e+00 +9.9999857575675921e-01
-1.6000000000000003e+00 +4.6452597902625250e+00 +0.0000000000000000e+00 -1.5999991357479850e+00 +1.8002615910268941e-03 +0.0000000000000000e+00 +9.9999837952778914e-01
-1.7000000000000004e+00 +4.6450741382938050e+00 +0.0000000000000000e+00 -1.6999989633618193e+00 +1.9127777786319535e-03 +0.0000000000000000e+00 +9.9999817063891172e-01
-1.8000000000000005e+00 +4.6448772347077734e+00 +0.0000000000000000e+00 -1.7999987694537707e+00 +2.0252939370063081e-03 +0.0000000000000000e+00 +9.9999794909013151e-01
-1.9000000000000006e+00 +4.6446690795074286e+00 +0.0000000000000000e+00 -1.8999985527578491e+00 +2.1378100646347346e-03 +0.0000000000000000e+00 +9.9999771488145317e-01
-2.0000000000000004e+00 +4.6444496726959201e+00 +0.0000000000000000e+00 -1.9999983120080649e+00 +2.2503261600406357e-03 +0.0000000000000000e+00 +9.9999746801288147e-01
-2.1000000000000005e+00 +4.6442190142765423e+00 +0.0000000000000000e+00 -2.0999980459384289e+00 +2.3628422217833356e-03 +0.0000000000000000e+00 +9.9999720848442142e-01
-2.2000000000000006e+00 +4.6439771042527331e+00 +0.0000000000000000e+00 -2.1999977532829527e+00 +2.4753582484281552e-03 +0.0000000000000000e+00 +9.9999693629607800e-01
-2.3000000000000007e+00 +4.6437239426280748e+00 +0.0000000000000000e+00 -2.2999974327756485e+00 +2.5878742385164622e-03 +0.0000000000000000e+00 +9.9999665144785654e-01
-2.4000000000000008e+00 +4.6434595294062975e+00 +0.0000000000000000e+00 -2.3999970831505282e+00 +2.7003901905629261e-03 +0.0000000000000000e+00 +9.9999635393976261e-01
-2.5000000000000009e+00 +4.6431838645912809e+00 +0.0000000000000000e+00 -2.4999967031416053e+00 +2.8129061030554921e-03 +0.0000000000000000e+00 +9.9999604377180196e-01
-2.6000000000000010e+00 +4.6428969481870563e+00 +0.0000000000000000e+00 -2.5999962914828934e+00 +2.9254219744553529e-03 +0.0000000000000000e+00 +9.9999572094398070e-01
-2.7000000000000011e+00 +4.6425987801978117e+00 +0.0000000000000000e+00 -2.6999958469084064e+00 +3.0379378031969175e-03 +0.0000000000000000e+00 +9.9999538545630517e-01
-2.8000000000000012e+00 +4.6422893606278919e+00 +0.0000000000000000e+00 -2.7999953681521594e+00 +3.1504535876877792e-03 +0.0000000000000000e+00 +9.9999503730878203e-01
-2.9000000000000012e+00 +4.6419686894818026e+00 +0.0000000000000000e+00 -2.8999948539481681e+00 +3.2629693263086794e-03 +0.0000000000000000e+00 +9.9999467650141827e-01
-3.0000000000000013e+00 +4.6416367667642140e+00 +0.0000000000000000e+00 -2.9999943030304488e+00 +3.3754850174134710e-03 +0.0000000000000000e+00 +9.9999430303422121e-01
-3.1000000000000014e+00 +4.6412935924799603e+00 +0.0000000000000000e+00 -3.0999937141330185e+00 +3.4880006593290772e-03 +0.0000000000000000e+00 +9.9999391690719852e-01
-3.2000000000000015e+00 +4.6409391666340447e+00 +0.0000000000000000e+00 -3.1999930859898948e+00 +3.6005162503554501e-03 +0.0000000000000000e+00 +9.9999351812035830e-01
-3.3000000000000016e+00 +4.6405734892316426e+00 +0.0000000000000000e+00 -3.2999924173350967e+00 +3.7130317887655263e-03 +0.0000000000000000e+00 +9.9999310667370911e-01
-3.4000000000000017e+00 +4.6401965602781035e+00 +0.0000000000000000e+00 -3.3999917069026435e+00 +3.8255472728051802e-03 +0.0000000000000000e+00 +9.9999268256725959e-01
-3.5000000000000018e+00 +4.6398083797789536e+00 +0.0000000000000000e+00 -3.4999909534265559e+00 +3.9380627006931736e-03 +0.0000000000000000e+00 +9.9999224580101920e-01
-3.6000000000000019e+00 +4.6394089477398976e+00 +0.0000000000000000e+00 -3.5999901556408549e+00 +4.0505780706211070e-03 +0.0000000000000000e+00 +9.9999179637499747e-01
-3.7000000000000020e+00 +4.6389982641668226e+00 +0.0000000000000000e+00 -3.6999893122795631e+00 +4.1630933807533625e-03 +0.0000000000000000e+00 +9.9999133428920461e-01
-3.8000000000000020e+00 +4.6385763290658018e+00 +0.0000000000000000e+00 -3.7999884220767037e+00 +4.2756086292270509e-03 +0.0000000000000000e+00 +9.9999085954365119e-01
-3.9000000000000021e+00 +4.6381431424430950e+00 +0.0000000000000000e+00 -3.8999874837663016e+00 +4.3881238141519514e-03 +0.0000000000000000e+00 +9.9999037213834829e-01
-4.0000000000000018e+00 +4.6376987043051532e+00 +0.0000000000000000e+00 -3.9999864960823821e+00 +4.5006389336104523e-03 +0.0000000000000000e+00 +9.9998987207330747e-01
-4.1000000000000014e+00 +4.6372430146586199e+00 +0.0000000000000000e+00 -4.0999854577589723e+00 +4.6131539856604864e-03 +0.0000000000000000e+00 +9.9998935934854083e-01
-4.2000000000000011e+00 +4.6367760735103323e+00 +0.0000000000000000e+00 -4.1999843675301003e+00 +4.7256689683684971e-03 +0.0000000000000000e+00 +9.9998883396406080e-01
-4.3000000000000007e+00 +4.6362978808673203e+00 +0.0000000000000000e+00 -4.2999832241297948e+00 +4.8381838798424734e-03 +0.0000000000000000e+00 +9.9998829591987992e-01
-4.4000000000000004e+00 +4.6358084367367995e+00 +0.0000000000000000e+00 -4.3999820262920863e+00 +4.9506987182350026e-03 +0.0000000000000000e+00 +9.9998774521601097e-01
-4.5000000000000000e+00 +4.6353077411261694e+00 +0.0000000000000000e+00 -4.4999807727510071e+00 +5.0632134817433280e-03 +0.0000000000000000e+00 +9.9998718185246693e-01
-4.5999999999999996e+00 +4.6347957940430060e+00 +0.0000000000000000e+00 -4.5999794622405910e+00 +5.1757281686094069e-03 +0.0000000000000000e+00 +9.9998660582926069e-01
-4.6999999999999993e+00 +4.6342725954950597e+00 +0.0000000000000000e+00 -4.6999780934948712e+00 +5.2882427771199815e-03 +0.0000000000000000e+00 +9.9998601714640534e-01
-4.7999999999999989e+00 +4.6337381454902493e+00 +0.0000000000000000e+00 -4.7999766652478844e+00 +5.4007573056066441e-03 +0.0000000000000000e+00 +9.9998541580391387e-01
-4.8999999999999986e+00 +4.6331924440366601e+00 +0.0000000000000000e+00 -4.8999751762336672e+00 +5.5132717524459165e-03 +0.0000000000000000e+00 +9.9998480180179949e-01
-4.9999999999999982e+00 +4.6326354911425351e+00 +0.0000000000000000e+00 -4.9999736251862572e+00 +5.6257861160593260e-03 +0.0000000000000000e+00 +9.9998417514007532e-01
-5.0999999999999979e+00 +4.6320672868162740e+00 +0.0000000000000000e+00 -5.0999720108396955e+00 +5.7383003949134934e-03 +0.0000000000000000e+00 +9.9998353581875443e-01
-5.1999999999999975e+00 +4.6314878310664271e+00 +0.0000000000000000e+00 -5.1999703319280224e+00 +5.8508145875202193e-03 +0.0000000000000000e+00 +9.9998288383784995e-01
-5.2999999999999972e+00 +4.6308971239016925e+00 +0.0000000000000000e+00 -5.2999685871852797e+00 +5.9633286924365807e-03 +0.0000000000000000e+00 +9.9998221919737473e-01
-5.3999999999999968e+00 +4.6302951653309092e+00 +0.0000000000000000e+00 -5.3999667753455114e+00 +6.0758427082650279e-03 +0.0000000000000000e+00 +9.9998154189734167e-01
-5.4999999999999964e+00 +4.6296819553630542e+00 +0.0000000000000000e+00 -5.4999648951427629e+00 +6.1883566336534889e-03 +0.0000000000000000e+00 +9.9998085193776343e-01
-5.5999999999999961e+00 +4.6290574940072364e+00 +0.0000000000000000e+00 -5.5999629453110797e+00 +6.3008704672954758e-03 +0.0000000000000000e+00 +9.9998014931865264e-01
-5.6999999999999957e+00 +4.6284217812726949e+00 +0.0000000000000000e+00 -5.6999609245845093e+00 +6.4133842079302002e-03 +0.0000000000000000e+00 +9.9997943404002165e-01
-5.7999999999999954e+00 +4.6277748171687909e+00 +0.0000000000000000e+00 -5.7999588316971007e+00 +6.5258978543426879e-03 +0.0000000000000000e+00 +9.9997870610188255e-01
-5.8999999999999950e+00 +4.6271166017050058e+00 +0.0000000000000000e+00 -5.8999566653829030e+00 +6.6384114053639033e-03 +0.0000000000000000e+00 +9.9997796550424733e-01
-5.9999999999999947e+00 +4.6264471348909355e+00 +0.0000000000000000e+00 -5.9999544243759670e+00 +6.7509248598708761e-03 +0.0000000000000000e+00 +9.9997721224712766e-01
-6.0999999999999943e+00 +4.6257664167362851e+00 +0.0000000000000000e+00 -6.0999521074103455e+00 +6.8634382167829669e-03 +0.0000000000000000e+00 +9.9997644633053484e-01
-6.1999999999999940e+00 +4.6250744472508680e+00 +0.0000000000000000e+00 -6.1999497132200920e+00 +6.9759514750194120e-03 +0.0000000000000000e+00 +9.9997566775448032e-01
-6.2999999999999936e+00 +4.6243712264446080e+00 +0.0000000000000000e+00 -6.2999472405392600e+00 +7.0884646334567671e-03 +0.0000000000000000e+00 +9.9997487651897576e-01
-6.3999999999999932e+00 +4.6236567543275422e+00 +0.0000000000000000e+00 -6.3999446881019058e+00 +7.2009776909250593e-03 +0.0000000000000000e+00 +9.9997407262403326e-01
-6.4999999999999929e+00 +4.6229310309098288e+00 +0.0000000000000000e+00 -6.4999420546420854e+00 +7.3134906462078153e-03 +0.0000000000000000e+00 +9.9997325606966525e-01
-6.5999999999999925e+00 +4.6221940562017485e+00 +0.0000000000000000e+00 -6.5999393388938579e+00 +7.4260034980420898e-03 +0.0000000000000000e+00 +9.9997242685588461e-01
-6.6999999999999922e+00 +4.6214458302137116e+00 +0.0000000000000000e+00 -6.6999365395912820e+00 +7.5385162451184953e-03 +0.0000000000000000e+00 +9.9997158498270466e-01
-6.7999999999999918e+00 +4.6206863529562616e+00 +0.0000000000000000e+00 -6.7999336554684193e+00 +7.6510288860812308e-03 +0.0000000000000000e+00 +9.9997073045013918e-01
-6.8999999999999915e+00 +4.6199156244400790e+00 +0.0000000000000000e+00 -6.8999306852593314e+00 +7.7635414195281098e-03 +0.0000000000000000e+00 +9.9996986325820236e-01
-6.9999999999999911e+00 +4.6191336446759879e+00 +0.0000000000000000e+00 -6.9999276276980815e+00 +7.8760538440105898e-03 +0.0000000000000000e+00 +9.9996898340690898e-01
-7.0999999999999908e+00 +4.6183404136749591e+00 +0.0000000000000000e+00 -7.0999244815187348e+00 +7.9885661580337986e-03 +0.0000000000000000e+00 +9.9996809089627425e-01
-7.1999999999999904e+00 +4.6175359314481144e+00 +0.0000000000000000e+00 -7.1999212454553589e+00 +8.1010783600565673e-03 +0.0000000000000000e+00 +9.9996718572631416e-01
-7.2999999999999901e+00 +4.6167201980067336e+00 +0.0000000000000000e+00 -7.2999179182420209e+00 +8.2135904484914556e-03 +0.0000000000000000e+00 +9.9996626789704512e-01
-7.3999999999999897e+00 +4.6158932133622566e+00 +0.0000000000000000e+00 -7.3999144986127909e+00 +8.3261024217047772e-03 +0.0000000000000000e+00 +9.9996533740848426e-01
-7.4999999999999893e+00 +4.6150549775262890e+00 +0.0000000000000000e+00 -7.4999109853017414e+00 +8.4386142780166346e-03 +0.0000000000000000e+00 +9.9996439426064931e-01
-7.5999999999999890e+00 +4.6142054905106074e+00 +0.0000000000000000e+00 -7.5999073770429453e+00 +8.5511260157009415e-03 +0.0000000000000000e+00 +9.9996343845355873e-01
-7.6999999999999886e+00 +4.6133447523271620e+00 +0.0000000000000000e+00 -7.6999036725704784e+00 +8.6636376329854541e-03 +0.0000000000000000e+00 +9.9996246998723148e-01
-7.7999999999999883e+00 +4.6124727629880837e+00 +0.0000000000000000e+00 -7.7998998706184173e+00 +8.7761491280517936e-03 +0.0000000000000000e+00 +9.9996148886168745e-01
-7.8999999999999879e+00 +4.6115895225056871e+00 +0.0000000000000000e+00 -7.8998959699208422e+00 +8.8886604990354810e-03 +0.0000000000000000e+00 +9.9996049507694718e-01
-7.9999999999999876e+00 +4.6106950308924759e+00 +0.0000000000000000e+00 -7.9998919692118342e+00 +9.0011717440259559e-03 +0.0000000000000000e+00 +9.9995948863303208e-01
-8.0999999999999872e+00 +4.6097892881611466e+00 +0.0000000000000000e+00 -8.0998878672254762e+00 +9.1136828610691341e-03 +0.0000000000000000e+00 +9.9995846952996414e-01
-8.1999999999999869e+00 +4.6088722943245930e+00 +0.0000000000000000e+00 -8.1998836626958553e+00 +9.2261938481952837e-03 +0.0000000000000000e+00 +9.9995743776776613e-01
-8.2999999999999865e+00 +4.6079440493959041e+00 +0.0000000000000000e+00 -8.2998793543570599e+00 +9.3387047034470243e-03 +0.0000000000000000e+00 +9.9995639334646091e-01
-8.3999999999999861e+00 +4.6070045533883643e+00 +0.0000000000000000e+00 -8.3998749409431781e+00 +9.4512154248819948e-03 +0.0000000000000000e+00 +9.9995533626607180e-01
-8.4999999999999858e+00 +4.6060538063154528e+00 +0.0000000000000000e+00 -8.4998704211883052e+00 +9.5637260105729781e-03 +0.0000000000000000e+00 +9.9995426652662223e-01
-8.5999999999999854e+00 +4.6050918081908385e+00 +0.0000000000000000e+00 -8.5998657938265346e+00 +9.6762364586080295e-03 +0.0000000000000000e+00 +9.9995318412813583e-01
-8.6999999999999851e+00 +4.6041185590283824e+00 +0.0000000000000000e+00 -8.6998610575919653e+00 +9.7887467670906107e-03 +0.0000000000000000e+00 +9.9995208907063649e-01
-8.7999999999999847e+00 +4.6031340588421346e+00 +0.0000000000000000e+00 -8.7998562112186960e+00 +9.9012569341397211e-03 +0.0000000000000000e+00 +9.9995098135414839e-01
-8.8999999999999844e+00 +4.6021383076463316e+00 +0.0000000000000000e+00 -8.8998512534408292e+00 +1.0013766957890037e-02 +0.0000000000000000e+00 +9.9994986097869598e-01
-8.9999999999999840e+00 +4.6011313054553948e+00 +0.0000000000000000e+00 -8.9998461829924707e+00 +1.0126276836492053e-02 +0.0000000000000000e+00 +9.9994872794430367e-01
-9.0999999999999837e+00 +4.6001130522839322e+00 +0.0000000000000000e+00 -9.0998409986077267e+00 +1.0238786568112222e-02 +0.0000000000000000e+00 +9.9994758225099623e-01
-9.1999999999999833e+00 +4.5990835481467327e+00 +0.0000000000000000e+00 -9.1998356990207064e+00 +1.0351296150933106e-02 +0.0000000000000000e+00 +9.9994642389879862e-01
-9.2999999999999829e+00 +4.5980427930587657e+00 +0.0000000000000000e+00 -9.2998302829655231e+00 +1.0463805583153518e-02 +0.0000000000000000e+00 +9.9994525288773595e-01
-9.3999999999999826e+00 +4.5969907870351809e+00 +0.0000000000000000e+00 -9.3998247491762914e+00 +1.0576314862988684e-02 +0.0000000000000000e+00 +9.9994406921783341e-01
-9.4999999999999822e+00 +4.5959275300913056e+00 +0.0000000000000000e+00 -9.4998190963871281e+00 +1.0688823988670385e-02 +0.0000000000000000e+00 +9.9994287288911632e-01
-9.5999999999999819e+00 +4.5948530222426429e+00 +0.0000000000000000e+00 -9.5998133233321550e+00 +1.0801332958447129e-02 +0.0000000000000000e+00 +9.9994166390161032e-01
-9.6999999999999815e+00 +4.5937672635048701e+00 +0.0000000000000000e+00 -9.6998074287454923e+00 +1.0913841770584298e-02 +0.0000000000000000e+00 +9.9994044225534096e-01
-9.7999999999999812e+00 +4.5926702538938375e+00 +0.0000000000000000e+00 -9.7998014113612655e+00 +1.1026350423364323e-02 +0.0000000000000000e+00 +9.9993920795033409e-01
-9.8999999999999808e+00 +4.5915619934255654e+00 +0.0000000000000000e+00 -9.8997952699136018e+00 +1.1138858915086843e-02 +0.0000000000000000e+00 +9.9993796098661547e-01
-9.9999999999999805e+00 +4.5904424821162442e+00 +0.0000000000000000e+00 -9.9997890031366321e+00 +1.1251367244068876e-02 +0.0000000000000000e+00 +9.9993670136421109e-01
-1.0099999999999980e+01 +4.5893117199822315e+00 +0.0000000000000000e+00 -1.0099782609764489e+01 +1.1363875408641484e-02 +0.0000000000000000e+00 +9.9993542908314692e-01
-1.0199999999999980e+01 +4.5881697070400529e+00 +0.0000000000000000e+00 -1.0199776088531307e+01 +1.1476383407110996e-02 +0.0000000000000000e+00 +9.9993414414344972e-01
-1.0299999999999979e+01 +4.5870164433064051e+00 +0.0000000000000000e+00 -1.0299769438171225e+01 +1.1588891237719693e-02 +0.0000000000000000e+00 +9.9993284654514702e-01
-1.0399999999999979e+01 +4.5858519287981654e+00 +0.0000000000000000e+00 -1.0399762657418384e+01 +1.1701398898641753e-02 +0.0000000000000000e+00 +9.9993153628826770e-01
-1.0499999999999979e+01 +4.5846761635323965e+00 +0.0000000000000000e+00 -1.0499755745006928e+01 +1.1813906387982737e-02 +0.0000000000000000e+00 +9.9993021337284149e-01
-1.0599999999999978e+01 +4.5834891475263539e+00 +0.0000000000000000e+00 -1.0599748699671002e+01 +1.1926413703779068e-02 +0.0000000000000000e+00 +9.9992887779889961e-01
-1.0699999999999978e+01 +4.5822908807974931e+00 +0.0000000000000000e+00 -1.0699741520144759e+01 +1.2038920843997495e-02 +0.0000000000000000e+00 +9.9992752956647435e-01
-1.0799999999999978e+01 +4.5810813633634773e+00 +0.0000000000000000e+00 -1.0799734205162350e+01 +1.2151427806534542e-02 +0.0000000000000000e+00 +9.9992616867559925e-01
-1.0899999999999977e+01 +4.5798605952421818e+00 +0.0000000000000000e+00 -1.0899726753457932e+01 +1.2263934589215946e-02 +0.0000000000000000e+00 +9.9992479512630938e-01
-1.0999999999999977e+01 +4.5786285764517043e+00 +0.0000000000000000e+00 -1.0999719163765665e+01 +1.2376441189796084e-02 +0.0000000000000000e+00 +9.9992340891864107e-01
-1.1099999999999977e+01 +4.5773853070103696e+00 +0.0000000000000000e+00 -1.1099711434819714e+01 +1.2488947605957382e-02 +0.0000000000000000e+00 +9.9992201005263204e-01
-1.1199999999999976e+01 +4.5761307869367389e+00 +0.0000000000000000e+00 -1.1199703565354246e+01 +1.2601453835309721e-02 +0.0000000000000000e+00 +9.9992059852832160e-01
-1.1299999999999976e+01 +4.5748650162496158e+00 +0.0000000000000000e+00 -1.1299695554103435e+01 +1.2713959875389817e-02 +0.0000000000000000e+00 +9.9991917434575051e-01
-1.1399999999999975e+01 +4.5735879949680545e+00 +0.0000000000000000e+00 -1.1399687399801456e+01 +1.2826465723660595e-02 +0.0000000000000000e+00 +9.9991773750496105e-01
-1.1499999999999975e+01 +4.5722997231113647e+00 +0.0000000000000000e+00 -1.1499679101182489e+01 +1.2938971377510556e-02 +0.0000000000000000e+00 +9.9991628800599719e-01
-1.1599999999999975e+01 +4.5710002006991228e+00 +0.0000000000000000e+00 -1.1599670656980718e+01 +1.3051476834253123e-02 +0.0000000000000000e+00 +9.9991482584890468e-01
-1.1699999999999974e+01 +4.5696894277511761e+00 +0.0000000000000000e+00 -1.1699662065930333e+01 +1.3163982091125973e-02 +0.0000000000000000e+00 +9.9991335103373080e-01
