# multipoles
# s[mm] polynom_b[n=0][T/m^n] polynom_b[n=1][T/m^n] polynom_b[n=2][T/m^n] polynom_b[n=3][T/m^n] polynom_b[n=4][T/m^n] polynom_b[n=5][T/m^n] polynom_b[n=6][T/m^n] 
+0.0000000000000000e+00 +4.1195202036805545e-01 -8.8857956496928275e-04 -2.6148244280855765e-01 +2.8571285205558108e+00 +1.6460015792463705e+03 +1.1741865435499148e+05 -8.0164575660588900e+06 
+1.0000000000000001e-01 +4.1195195290232978e-01 -8.8410337379458894e-04 -2.5880275962594534e-01 +2.7459103077026481e+00 +1.6059793213419948e+03 +1.1811714843320980e+05 -7.8439824330531983e+06 
+2.0000000000000001e-01 +4.1195188548274408e-01 -8.8070845901535211e-04 -2.5622473528203266e-01 +2.6468578824334736e+00 +1.5673335589298458e+03 +1.1877046753800077e+05 -7.6759679037134051e+06 
+3.0000000000000004e-01 +4.1195181831166594e-01 -8.7833718223485435e-04 -2.5375798859028237e-01 +2.5595867827115897e+00 +1.5302166152055622e+03 +1.1937940340447088e+05 -7.5132226292378036e+06 
+4.0000000000000002e-01 +4.1195175159142006e-01 -8.7693191202150049e-04 -2.5141213723019185e-01 +2.4837126911540062e+00 +1.4947808132602740e+03 +1.1994474726534980e+05 -7.3565553135639159e+06 
+5.0000000000000000e-01 +4.1195168552428274e-01 -8.7643503053233052e-04 -2.4919679693122368e-01 +2.4188516223026624e+00 +1.4611784613605291e+03 +1.2046728870934059e+05 -7.2067746463507395e+06 
+5.9999999999999998e-01 +4.1195162031248772e-01 -8.7678892603634980e-04 -2.4712158110815546e-01 +2.3646197020128308e+00 +1.4295618402538753e+03 +1.2094781689541263e+05 -7.0646892287980160e+06 
+6.9999999999999996e-01 +4.1195155615824330e-01 -8.7793600176332078e-04 -2.4519610286925714e-01 +2.3206334119200900e+00 +1.4000832412950572e+03 +1.2138711910610665e+05 -6.9311077544746129e+06 
+7.9999999999999993e-01 +4.1195149326371527e-01 -8.7981867160278346e-04 -2.4342997212740175e-01 +2.2865094606162666e+00 +1.3728949089786729e+03 +1.2178598143196823e+05 -6.8068387318811817e+06 
+8.9999999999999991e-01 +4.1195143183105271e-01 -8.8237936055799067e-04 -2.4183279814083233e-01 +2.2618647924167545e+00 +1.3481490854726612e+03 +1.2214518865951203e+05 -6.6926906856665444e+06 
+9.9999999999999989e-01 +4.1195137206237142e-01 -8.8556050872835531e-04 -2.4041418718438162e-01 +2.2463166947203543e+00 +1.3259979656816811e+03 +1.2246552361047307e+05 -6.5894719426083537e+06 
+1.0999999999999999e+00 +4.1195131415978853e-01 -8.8930456848868912e-04 -2.3918374599411987e-01 +2.2394827077190511e+00 +1.3065937590428798e+03 +1.2274776760979458e+05 -6.4979909159599151e+06 
+1.2000000000000000e+00 +4.1195125832537571e-01 -8.9355400849590468e-04 -2.3815107543825195e-01 +2.2409807368321695e+00 +1.2900885673470689e+03 +1.2299269977965737e+05 -6.4190555226748083e+06 
+1.3000000000000000e+00 +4.1195120476122465e-01 -8.9825131119794673e-04 -2.3732577827955059e-01 +2.2504289754201197e+00 +1.2766345305606833e+03 +1.2320109743082005e+05 -6.3534738696033359e+06 
+1.4000000000000001e+00 +4.1195115366939794e-01 -9.0333897457794954e-04 -2.3671745232137897e-01 +2.2674459434889274e+00 +1.2663836928037035e+03 +1.2337373579713007e+05 -6.3020536098804977e+06 
+1.5000000000000002e+00 +4.1195110525197931e-01 -9.0875951402395879e-04 -2.3633569604569796e-01 +2.2916505372181679e+00 +1.2594881082694344e+03 +1.2351138769753532e+05 -6.2656024427564871e+06 
+1.6000000000000003e+00 +4.1195105971102830e-01 -9.1445546136000619e-04 -2.3619010253460049e-01 +2.3226620020425837e+00 +1.2560997226821855e+03 +1.2361482361556831e+05 -6.2449275443407763e+06 
+1.7000000000000004e+00 +4.1195101724863403e-01 -9.2036936608293305e-04 -2.3629026562120189e-01 +2.3600999471512969e+00 +1.2563704884161875e+03 +1.2368481160462911e+05 -6.2408361083647013e+06 
+1.8000000000000005e+00 +4.1195097806688463e-01 -9.2644379759502463e-04 -2.3664577534306608e-01 +2.4035844189499964e+00 +1.2604522751764478e+03 +1.2372211676958314e+05 -6.2541349178892113e+06 
+1.9000000000000006e+00 +4.1195094236787666e-01 -9.3262134130557279e-04 -2.3726621868391970e-01 +2.4527357705895136e+00 +1.2684968818818652e+03 +1.2372750199795004e+05 -6.2856303950414658e+06 
+2.0000000000000004e+00 +4.1195091035375642e-01 -9.3884461432473137e-04 -2.3816118334530792e-01 +2.5071753469501874e+00 +1.2806560902251690e+03 +1.2370171961984028e+05 -6.3361284653665246e+06 
+2.1000000000000005e+00 +4.1195088214100867e-01 -9.4506892129970848e-04 -2.3933399707982886e-01 +2.5667394765723341e+00 +1.2969871568540570e+03 +1.2364380525624927e+05 -6.4059630502967015e+06 
+2.2000000000000006e+00 +4.1195085748054960e-01 -9.5129153425252367e-04 -2.4076213216231115e-01 +2.6318122971400060e+00 +1.3171411321591618e+03 +1.2354953475815929e+05 -6.4935177318562400e+06 
+2.3000000000000007e+00 +4.1195083602626348e-01 -9.5751784005576569e-04 -2.4241629305015117e-01 +2.7028204952533361e+00 +1.3406566389748380e+03 +1.2341476666510427e+05 -6.5966322666819794e+06 
+2.4000000000000008e+00 +4.1195081743199491e-01 -9.6375320369305171e-04 -2.4426717422229080e-01 +2.7801898937778158e+00 +1.3670720364188603e+03 +1.2323536601865623e+05 -6.7131448890416529e+06 
+2.5000000000000009e+00 +4.1195080135153073e-01 -9.7000298516386008e-04 -2.4628545931212659e-01 +2.8643462717499171e+00 +1.3959254465795605e+03 +1.2300719808081834e+05 -6.8408926510970192e+06 
+2.6000000000000010e+00 +4.1195078743860902e-01 -9.7627253463097288e-04 -2.4844182170839615e-01 +2.9557152459266787e+00 +1.4267547611319098e+03 +1.2272612902217868e+05 -6.9777114417939680e+06 
+2.7000000000000011e+00 +4.1195077534691260e-01 -9.8256719048928792e-04 -2.5070692362269836e-01 +3.0547222289829419e+00 +1.4590976215481774e+03 +1.2238802619442079e+05 -7.1214358897114415e+06 
+2.8000000000000012e+00 +4.1195076473005315e-01 -9.8889227758111359e-04 -2.5305141409607868e-01 +3.1617924045008214e+00 +1.4924913803147326e+03 +1.2198875827342659e+05 -7.2698991785825202e+06 
+2.9000000000000012e+00 +4.1195075524159352e-01 -9.9525310632216806e-04 -2.5544593113672737e-01 +3.2773507183886745e+00 +1.5264731346661515e+03 +1.2152419532793984e+05 -7.4209331892892160e+06 
+3.0000000000000013e+00 +4.1195074653501995e-01 -1.0016549697890419e-03 -2.5786109847371985e-01 +3.4018218113198366e+00 +1.5605796671068586e+03 +1.2099020923794706e+05 -7.5723682272866946e+06 
+3.1000000000000014e+00 +4.1195073826374268e-01 -1.0081031399409917e-03 -2.6026752494279182e-01 +3.5356299345911206e+00 +1.5943474254834684e+03 +1.2038267417692735e+05 -7.7220329058917975e+06 
+3.2000000000000015e+00 +4.1195073008111027e-01 -1.0146028692971864e-03 -2.6263580659879326e-01 +3.6791990179203595e+00 +1.6273125659921859e+03 +1.1969746624036625e+05 -7.8677543597833514e+06 
+3.3000000000000016e+00 +4.1195072164038288e-01 -1.0211593836631245e-03 -2.6493652264605855e-01 +3.8329524717154331e+00 +1.6590108683267608e+03 +1.1893046461596961e+05 -8.0073578254015315e+06 
+3.4000000000000017e+00 +4.1195071259473071e-01 -1.0277778859262765e-03 -2.6714023523003466e-01 +3.9973133258441815e+00 +1.6889777316685456e+03 +1.1807755078170258e+05 -8.1386666226577861e+06 
+3.5000000000000018e+00 +4.1195070259725380e-01 -1.0344635496948380e-03 -2.6921749181146026e-01 +4.1727040594029248e+00 +1.7167482166661455e+03 +1.1713460951336805e+05 -8.2595023466380956e+06 
+3.6000000000000019e+00 +4.1195069130095213e-01 -1.0412215187047735e-03 -2.7113882084997526e-01 +4.3595466046649536e+00 +1.7418569584690506e+03 +1.1609752887454192e+05 -8.3676844446742423e+06 
+3.7000000000000020e+00 +4.1195067835872728e-01 -1.0480569047292931e-03 -2.7287473215071867e-01 +4.5582623069087767e+00 +1.7638381740591556e+03 +1.1496220046280973e+05 -8.4610302547294945e+06 
+3.8000000000000020e+00 +4.1195066342338910e-01 -1.0549747852211901e-03 -2.7439571729955109e-01 +4.7692718736285205e+00 +1.7822256652327262e+03 +1.1372451972739992e+05 -8.5373550062816720e+06 
+3.9000000000000021e+00 +4.1195064614763688e-01 -1.0619802005527395e-03 -2.7567224713768002e-01 +4.9929953181876225e+00 +1.7965527690036381e+03 +1.1238038629477286e+05 -8.5944715833175592e+06 
+4.0000000000000018e+00 +4.1195062618378581e-01 -1.0690780690182126e-03 -2.7667474163358724e-01 +5.2298449988012043e+00 +1.8063521998983299e+03 +1.1092578875143423e+05 -8.6301941333520785e+06 
+4.1000000000000014e+00 +4.1195060318807170e-01 -1.0762613054551822e-03 -2.7737670768275935e-01 +5.4796628515877588e+00 +1.8112226345322347e+03 +1.0936183931629058e+05 -8.6427908802267238e+06 
+4.2000000000000011e+00 +4.1195057698070459e-01 -1.0835247787666870e-03 -2.7778257881516899e-01 +5.7412857050486599e+00 +1.8112844316937840e+03 +1.0769893566400906e+05 -8.6329796618900113e+06 
+4.3000000000000007e+00 +4.1195054745598925e-01 -1.0908788103504144e-03 -2.7790990044959080e-01 +6.0135061648702983e+00 +1.8068658048911757e+03 +1.0594843927977889e+05 -8.6023751493965946e+06 
+4.4000000000000004e+00 +4.1195051450847786e-01 -1.0983338192674934e-03 -2.7777628230345142e-01 +6.2951168186594080e+00 +1.7982959978352592e+03 +1.0412170565988126e+05 -8.5525971649012044e+06 
+4.5000000000000000e+00 +4.1195047803283463e-01 -1.1059002199772816e-03 -2.7739935983565844e-01 +6.5849101638567280e+00 +1.7859048255158782e+03 +1.0223009046030101e+05 -8.4852683611269407e+06 
+4.5999999999999996e+00 +4.1195043792376074e-01 -1.1135884238906886e-03 -2.7679678616715914e-01 +6.8816786424323446e+00 +1.7700225309157377e+03 +1.0028494929523082e+05 -8.4020135650702883e+06 
+4.6999999999999993e+00 +4.1195039407609740e-01 -1.1214088387071881e-03 -2.7598624524989174e-01 +7.1842146253717525e+00 +1.7509800375527057e+03 +9.8297637788168533e+04 -8.3044609730122415e+06 
+4.7999999999999989e+00 +4.1195034638474493e-01 -1.1293718695714688e-03 -2.7498544327318186e-01 +7.4913104352896136e+00 +1.7291087973875399e+03 +9.6279511445619079e+04 -8.1942414548131563e+06 
+4.8999999999999986e+00 +4.1195029474472239e-01 -1.1374879191543483e-03 -2.7381211635739106e-01 +7.8017583514733735e+00 +1.7047409384175178e+03 +9.4241925585961289e+04 -8.0729892503400762e+06 
+4.9999999999999982e+00 +4.1195023905115602e-01 -1.1457673875628275e-03 -2.7248403028302093e-01 +8.1143506000999679e+00 +1.6782092683906469e+03 +9.2196235391688926e+04 -7.9423420038235821e+06 
+5.0999999999999979e+00 +4.1195017919928678e-01 -1.1542206726512336e-03 -2.7101898219907256e-01 +8.4278793634906872e+00 +1.6498473134324367e+03 +9.0153795824021770e+04 -7.8039409580540610e+06 
+5.1999999999999975e+00 +4.1195011508448698e-01 -1.1628581730109653e-03 -2.6943480351794707e-01 +8.7411368591091545e+00 +1.6199893782613540e+03 +8.8125961160597362e+04 -7.6594312467428083e+06 
+5.2999999999999972e+00 +4.1195004660223994e-01 -1.1716902838903465e-03 -2.6774935809715633e-01 +9.0529152221859626e+00 +1.5889705171707897e+03 +8.6124085637934069e+04 -7.5104617657545926e+06 
+5.3999999999999968e+00 +4.1194997364818486e-01 -1.1807274002970829e-03 -2.6598054894435591e-01 +9.3620065921451037e+00 +1.5571266702021699e+03 +8.4159522936099747e+04 -7.3586858350624992e+06 
+5.4999999999999964e+00 +4.1194989611809568e-01 -1.1899799191960930e-03 -2.6414631620380702e-01 +9.6672031713681665e+00 +1.5247946291354515e+03 +8.2243625822516537e+04 -7.2057610435526716e+06 
+5.5999999999999961e+00 +4.1194981390789337e-01 -1.1994582329302298e-03 -2.6226463956282015e-01 +9.9672970330068473e+00 +1.4923120887638067e+03 +8.0387747234009905e+04 -7.0533494992418857e+06 
+5.6999999999999957e+00 +4.1194972691365439e-01 -1.2091727406324622e-03 -2.6035354037839353e-01 +1.0261080449903321e+01 +1.4600176964423854e+03 +7.8603238356859089e+04 -6.9031180831363751e+06 
+5.7999999999999954e+00 +4.1194963503162307e-01 -1.2191338373234465e-03 -2.5843108365014078e-01 +1.0547345574736893e+01 +1.4282510922876554e+03 +7.6901450450911449e+04 -6.7567386403060500e+06 
+5.8999999999999950e+00 +4.1194953815821628e-01 -1.2293519216634769e-03 -2.5651537978943828e-01 +1.0824884662481693e+01 +1.3973529509336704e+03 +7.5293733542925358e+04 -6.6158881925196080e+06 
+5.9999999999999947e+00 +4.1194943619113339e-01 -1.2398375937735322e-03 -2.5462472004657871e-01 +1.1092510892846354e+01 +1.3676660919388535e+03 +7.3791196532394693e+04 -6.4822419587478731e+06 
+6.0999999999999943e+00 +4.1194932915234073e-01 -1.2506074986349358e-03 -2.5278288576444968e-01 +1.1349606539669757e+01 +1.3395844324551747e+03 +7.2399489538136157e+04 -6.3574730354618402e+06 
+6.1999999999999940e+00 +4.1194921734403628e-01 -1.2616186845013232e-03 -2.5100208768264576e-01 +1.1595771369248187e+01 +1.3132537513909022e+03 +7.1118148077494188e+04 -6.2420469702135008e+06 
+6.2999999999999936e+00 +4.1194910109379723e-01 -1.2727848056786719e-03 -2.4928115039478585e-01 +1.1830532135497602e+01 +1.2886245943913523e+03 +6.9945032544366230e+04 -6.1357034804012701e+06 
+6.3999999999999932e+00 +4.1194898072852887e-01 -1.2840194206286742e-03 -2.4761872034711224e-01 +1.2053435983591251e+01 +1.2656465521149605e+03 +6.8877865847341774e+04 -6.0381830296269329e+06 
+6.4999999999999929e+00 +4.1194885657525393e-01 -1.2952360921065942e-03 -2.4601343662582850e-01 +1.2264030146948501e+01 +1.2442689254722568e+03 +6.7914370141977168e+04 -5.9492244108612901e+06 
+6.5999999999999925e+00 +4.1194872896112672e-01 -1.3063483891966560e-03 -2.4446393179379017e-01 +1.2461862000947006e+01 +1.2244407337732093e+03 +6.7052266527207234e+04 -5.8685647696693810e+06 
+6.6999999999999922e+00 +4.1194859821341495e-01 -1.3172698874709858e-03 -2.4296882860285493e-01 +1.2646479062498072e+01 +1.2061106460313169e+03 +6.6289275045532529e+04 -5.7959392680418668e+06 
+6.7999999999999918e+00 +4.1194846465954188e-01 -1.3279141676744528e-03 -2.4152674411459973e-01 +1.2817428947737415e+01 +1.1892270510396831e+03 +6.5623114934058627e+04 -5.7310813992988719e+06 
+6.8999999999999915e+00 +4.1194832862704184e-01 -1.3381948193601999e-03 -2.4013628318519611e-01 +1.2974259471342341e+01 +1.1737379275758015e+03 +6.5051504050809999e+04 -5.6737223644068940e+06 
+6.9999999999999911e+00 +4.1194819044361075e-01 -1.3480254375780620e-03 -2.3879604365833612e-01 +1.3116518545233758e+01 +1.1595909347108134e+03 +6.4572159467806916e+04 -5.6235914811341595e+06 
+7.0999999999999908e+00 +4.1194805043707966e-01 -1.3573196269948415e-03 -2.3750461223412062e-01 +1.3243754294484498e+01 +1.1467333281423651e+03 +6.4182796797229239e+04 -5.5804157810321078e+06 
+7.1999999999999904e+00 +4.1194790893542121e-01 -1.3659909960362501e-03 -2.3626056384521268e-01 +1.3355514879349935e+01 +1.1351119392919356e+03 +6.3881131232699197e+04 -5.5439198922139695e+06 
+7.2999999999999901e+00 +4.1194776626676388e-01 -1.3739531661925454e-03 -2.3506246287015495e-01 +1.3451348759570438e+01 +1.1246731929508455e+03 +6.3664876027982733e+04 -5.5138261125151673e+06 
+7.3999999999999897e+00 +4.1194762275938579e-01 -1.3811197642956204e-03 -2.3390886084620638e-01 +1.3530804466008931e+01 +1.1153630551960475e+03 +6.3531743817533119e+04 -5.4898541472582994e+06 
+7.4999999999999893e+00 +4.1194747874173182e-01 -1.3874044275067731e-03 -2.3279829809803421e-01 +1.3593430742957388e+01 +1.1071270593566580e+03 +6.3479445789123689e+04 -5.4717212233956950e+06 
+7.5999999999999890e+00 +4.1194733454239574e-01 -1.3927208021688013e-03 -2.3172929997818800e-01 +1.3638776500364113e+01 +1.0999102255592729e+03 +6.3505691991414991e+04 -5.4591416905571222e+06 
+7.6999999999999886e+00 +4.1194719049013717e-01 -1.3969825429412934e-03 -2.3070037817487415e-01 +1.3666390789636027e+01 +1.0936570791372462e+03 +6.3608191460192575e+04 -5.4518270969593516e+06 
+7.7999999999999883e+00 +4.1194704691389505e-01 -1.4001033159555790e-03 -2.2971003136376295e-01 +1.3675822886530018e+01 +1.0883116561063719e+03 +6.3784651755189698e+04 -5.4494862016217904e+06 
+7.8999999999999879e+00 +4.1194690414276131e-01 -1.4019967967524145e-03 -2.2875674082944114e-01 +1.3666622226797616e+01 +1.0838174133394389e+03 +6.4032779331712612e+04 -5.4518245383636281e+06 
+7.9999999999999876e+00 +4.1194676250399037e-01 -1.4025772308401659e-03 -2.2783860426543165e-01 +1.3638339609866684e+01 +1.0801107912650457e+03 +6.4350419767448213e+04 -5.4585260491546886e+06 
+8.0999999999999872e+00 +4.1194662226012979e-01 -1.4017814602288153e-03 -2.2694579355172947e-01 +1.3590856183488524e+01 +1.0769903460625012e+03 +6.4735174316073513e+04 -5.4687419403661573e+06 
+8.1999999999999869e+00 +4.1194648354078373e-01 -1.3996284944227898e-03 -2.2607075077902525e-01 +1.3524954004778550e+01 +1.0742746425706623e+03 +6.5182986391358616e+04 -5.4816324670288954e+06 
+8.2999999999999865e+00 +4.1194634647063350e-01 -1.3961708083536624e-03 -2.2521574656497834e-01 +1.3441263092404302e+01 +1.0718923108513968e+03 +6.5692730962673581e+04 -5.4966377148276400e+06 
+8.3999999999999861e+00 +4.1194621117560981e-01 -1.3914604901439430e-03 -2.2438327202935787e-01 +1.3340352463452426e+01 +1.0697703175993220e+03 +6.6263703051285556e+04 -5.5131750375288874e+06 
+8.4999999999999858e+00 +4.1194607778164899e-01 -1.3855496665269233e-03 -2.2357583173062601e-01 +1.3222791252959482e+01 +1.0678360120486786e+03 +6.6895200492085991e+04 -5.5306639422303671e+06 
+8.5999999999999854e+00 +4.1194594641467541e-01 -1.3784905063000462e-03 -2.2279594175151946e-01 +1.3089148785974205e+01 +1.0660170930153622e+03 +6.7586523619236919e+04 -5.5485259434141507e+06 
+8.6999999999999851e+00 +4.1194581720062129e-01 -1.3703352205553566e-03 -2.2204613327847023e-01 +1.2939994552829161e+01 +1.0642416844210752e+03 +6.8336975523715708e+04 -5.5661849378317371e+06 
+8.7999999999999847e+00 +4.1194569026540323e-01 -1.3611360651860302e-03 -2.2132894950067838e-01 +1.2775898257456465e+01 +1.0624382781978786e+03 +6.9145861857765369e+04 -5.5830669408273948e+06 
+8.8999999999999844e+00 +4.1194556573491298e-01 -1.3509453398518536e-03 -2.2064694553015832e-01 +1.2597429762546460e+01 +1.0605357406017529e+03 +7.0012491248001592e+04 -5.5986001357295392e+06 
+8.9999999999999840e+00 +4.1194544373505121e-01 -1.3398153908295441e-03 -2.2000269310924908e-01 +1.2405159134896250e+01 +1.0584634047252464e+03 +7.0936175156798592e+04 -5.6122153184583383e+06 
+9.0999999999999837e+00 +4.1194532439168641e-01 -1.3277986125948399e-03 -2.1939877591008472e-01 +1.2199656676536121e+01 +1.0561509879519335e+03 +7.1916227766390963e+04 -5.6233455259571802e+06 
+9.1999999999999833e+00 +4.1194520783068445e-01 -1.3149474477691739e-03 -2.1883779380367430e-01 +1.1981492884088063e+01 +1.0535286755895393e+03 +7.2951966343368971e+04 -5.6314264366275417e+06 
+9.2999999999999829e+00 +4.1194509417787278e-01 -1.3013143894833161e-03 -2.1832235906707670e-01 +1.1751238495214158e+01 +1.0505270571078611e+03 +7.4042711054631713e+04 -5.6358960920776119e+06 
+9.3999999999999826e+00 +4.1194498355907966e-01 -1.2869519811630327e-03 -2.1785510171817496e-01 +1.1509464456439698e+01 +1.0470772292069607e+03 +7.5187785244681610e+04 -5.6361953865795527e+06 
+9.4999999999999822e+00 +4.1194487610009156e-01 -1.2719128198046268e-03 -2.1743866491861991e-01 +1.1256741987100257e+01 +1.0431107167161899e+03 +7.6386515175804030e+04 -5.6317677161470000e+06 
+9.5999999999999819e+00 +4.1194477192668399e-01 -1.2562495543976472e-03 -2.1707570926898373e-01 +1.0993642509336000e+01 +1.0385595568103574e+03 +7.7638230517561416e+04 -5.6220593822464207e+06 
+9.6999999999999815e+00 +4.1194467116459327e-01 -1.2400148901636145e-03 -2.1676890984986164e-01 +1.0720737742180404e+01 +1.0333562493966440e+03 +7.8942263907355125e+04 -5.6065193750801701e+06 
+9.7999999999999812e+00 +4.1194457393953104e-01 -1.2232615886493552e-03 -2.1652095853528960e-01 +1.0438599677387682e+01 +1.0274338045052825e+03 +8.0297951183591824e+04 -5.5845996057557985e+06 
+9.8999999999999808e+00 +4.1194448037717946e-01 -1.2060424671657237e-03 -2.1633456426169542e-01 +1.0147800540934279e+01 +1.0207257545237798e+03 +8.1704631687828369e+04 -5.5557549821312455e+06 
+9.9999999999999805e+00 +4.1194439060725208e-01 -1.1884083218836909e-03 -2.1621329399902542e-01 +9.8488564516320984e+00 +1.0131855926257996e+03 +8.3161614472122586e+04 -5.5195142271745168e+06 
+1.0099999999999980e+01 +4.1194430469096338e-01 -1.1703891295279060e-03 -2.1616330747711618e-01 +9.5416072739817945e+00 +1.0048819470315282e+03 +8.4670614546646757e+04 -5.4759660941757914e+06 
