# multipoles
# s[mm] polynom_b[n=0][T/m^n] polynom_b[n=1][T/m^n] polynom_b[n=2][T/m^n] polynom_b[n=3][T/m^n] polynom_b[n=4][T/m^n] polynom_b[n=5][T/m^n] polynom_b[n=6][T/m^n] 
+0.0000000000000000e+00 -4.1194047522235611e-01 -9.7759343025933415e-04 -2.2138935343628169e-01 +3.5452849427576425e+01 +2.8124366823163186e+03 -1.4241585081478098e+05 -7.4391037300076867e+06 
+1.0000000000000001e-01 -4.1194046963218167e-01 -9.7973829744506268e-04 -2.2118791254327091e-01 +3.5510892794437972e+01 +2.8253331246123134e+03 -1.4281820954214383e+05 -7.5256030684958557e+06 
+2.0000000000000001e-01 -4.1194045936577373e-01 -9.8243564195891054e-04 -2.2099441994192912e-01 +3.5580016223647583e+01 +2.8370609507062413e+03 -1.4327490167618109e+05 -7.6057275307508186e+06 
+3.0000000000000004e-01 -4.1194044457543277e-01 -9.8564910124636514e-04 -2.2081138826688290e-01 +3.5659733048901963e+01 +2.8476622091528670e+03 -1.4378305444980276e+05 -7.6794902792835422e+06 
+4.0000000000000002e-01 -4.1194042541344167e-01 -9.8934230508077254e-04 -2.2064133124351931e-01 +3.5749556612155146e+01 +2.8571789610334231e+03 -1.4433979565217526e+05 -7.7469045194497788e+06 
+5.0000000000000000e-01 -4.1194040203204640e-01 -9.9347887848041569e-04 -2.2048676647399076e-01 +3.5849000331485101e+01 +2.8656533321811567e+03 -1.4494225401940951e+05 -7.8079837417413015e+06 
+5.9999999999999998e-01 -4.1194037458347943e-01 -9.9802244048185032e-04 -2.2035021217956252e-01 +3.5957577655364211e+01 +2.8731274468030542e+03 -1.4558755899075881e+05 -7.8627413923504027e+06 
+6.9999999999999996e-01 -4.1194034321994993e-01 -1.0029365982809177e-03 -2.2023418908132547e-01 +3.6074801874743130e+01 +2.8796434653225533e+03 -1.4627283962203594e+05 -7.9111910553338444e+06 
+7.9999999999999993e-01 -4.1194030809366383e-01 -1.0081849516773761e-03 -2.2014121754665616e-01 +3.6200186242336997e+01 +2.8852435251431266e+03 -1.4699522529387893e+05 -7.9533461553115454e+06 
+8.9999999999999991e-01 -4.1194026935682615e-01 -1.0137310868090980e-03 -2.2007381749491789e-01 +3.6333243773343902e+01 +2.8899697373386703e+03 -1.4775184456130009e+05 -7.9892199351642774e+06 
+9.9999999999999989e-01 -4.1194022716163287e-01 -1.0195385760273952e-03 -2.2003450983194572e-01 +3.6473487229762490e+01 +2.8938642151812733e+03 -1.4853982507790282e+05 -8.0188255912800292e+06 
+1.0999999999999999e+00 -4.1194018166031143e-01 -1.0255709781294730e-03 -2.2002581085804726e-01 +3.6620429113882629e+01 +2.8969689609484431e+03 -1.4935629356657050e+05 -8.0421757163786953e+06 
+1.2000000000000000e+00 -4.1194013300508914e-01 -1.0317918331243846e-03 -2.2005023701074630e-01 +3.6773581498484496e+01 +2.8993259591534265e+03 -1.5019837484012541e+05 -8.0592827457382996e+06 
+1.3000000000000000e+00 -4.1194008134821569e-01 -1.0381646648314354e-03 -2.2011030187415040e-01 +3.6932456094418910e+01 +2.9009771161106269e+03 -1.5106319221543733e+05 -8.0701586587933386e+06 
+1.4000000000000001e+00 -4.1194002684197700e-01 -1.0446529764668172e-03 -2.2020851413137438e-01 +3.7096564103631273e+01 +2.9019642163945796e+03 -1.5194786666076648e+05 -8.0748147580373641e+06 
+1.5000000000000002e+00 -4.1193996963868801e-01 -1.0512202487364206e-03 -2.2034737942951782e-01 +3.7265416153824006e+01 +2.9023289624189620e+03 -1.5284951643862366e+05 -8.0732618633265514e+06 
+1.6000000000000003e+00 -4.1193990989071577e-01 -1.0578299422813143e-03 -2.2052939672806640e-01 +3.7438522350713356e+01 +2.9021128973022155e+03 -1.5376525740256073e+05 -8.0655099244496292e+06 
+1.7000000000000004e+00 -4.1193984775045434e-01 -1.0644454904424130e-03 -2.2075706224480746e-01 +3.7615392059829993e+01 +2.9013574824762431e+03 -1.5469220176496945e+05 -8.0515683914158130e+06 
+1.8000000000000005e+00 -4.1193978337036996e-01 -1.0710303025878924e-03 -2.2103286338092265e-01 +3.7795533983969648e+01 +2.9001039774001670e+03 -1.5562745853394066e+05 -8.0314456298173936e+06 
+1.9000000000000006e+00 -4.1193971690298387e-01 -1.0775477602731640e-03 -2.2135928137296343e-01 +3.7978456041568833e+01 +2.8983934906428444e+03 -1.5656813283624678e+05 -8.0051491611480284e+06 
+2.0000000000000004e+00 -4.1193964850091003e-01 -1.0839612055852704e-03 -2.2173878482803905e-01 +3.8163665144163488e+01 +2.8962668420079931e+03 -1.5751132831968027e+05 -7.9726852668252531e+06 
+2.1000000000000005e+00 -4.1193957834063799e-01 -1.0902362422227051e-03 -2.2217195980466756e-01 +3.8350531611129504e+01 +2.8937385482997302e+03 -1.5845378375415565e+05 -7.9340248587381318e+06 
+2.2000000000000006e+00 -4.1193950666455936e-01 -1.0963409367789549e-03 -2.2265567436811923e-01 +3.8537451683161883e+01 +2.8908393820788924e+03 -1.5938659857738038e+05 -7.8895895362626305e+06 
+2.3000000000000007e+00 -4.1193943372677555e-01 -1.1022405437094728e-03 -2.2318657719146290e-01 +3.8722385208337577e+01 +2.8876344073358050e+03 -1.6029801126488802e+05 -7.8400850040970249e+06 
+2.4000000000000008e+00 -4.1193935978146001e-01 -1.1079002968070371e-03 -2.2376130913156547e-01 +3.8903290732351337e+01 +2.8841886621148765e+03 -1.6117625147263525e+05 -7.7862172384173991e+06 
+2.5000000000000009e+00 -4.1193928508283512e-01 -1.1132854419150350e-03 -2.2437650281378957e-01 +3.9078127094559157e+01 +2.8805670477348094e+03 -1.6200955016194680e+05 -7.7286916948703565e+06 
+2.6000000000000010e+00 -4.1193920988521926e-01 -1.1183612392682816e-03 -2.2502877665482088e-01 +3.9244853483785427e+01 +2.8768342207624055e+03 -1.6278613983962417e+05 -7.6682128218314638e+06 
+2.7000000000000011e+00 -4.1193913444297209e-01 -1.1230929685121173e-03 -2.2571474156693136e-01 +3.9401429567377257e+01 +2.8730547247773302e+03 -1.6349425520089100e+05 -7.6054847042481815e+06 
+2.8000000000000012e+00 -4.1193905901057831e-01 -1.1274459279622744e-03 -2.2643099026498986e-01 +3.9545815458906475e+01 +2.8692927912570644e+03 -1.6412213286246895e+05 -7.5412101421279199e+06 
+2.9000000000000012e+00 -4.1193898384256822e-01 -1.1313854409146071e-03 -2.2717410686809550e-01 +3.9675971887434493e+01 +2.8656125248392086e+03 -1.6465801224570570e+05 -7.4760915424296083e+06 
+3.0000000000000013e+00 -4.1193890919357984e-01 -1.1348768569675843e-03 -2.2794065908424027e-01 +3.9789860218203884e+01 +2.8620777604351724e+03 -1.6509013559567803e+05 -7.4108302680689665e+06 
+3.1000000000000014e+00 -4.1193883531833775e-01 -1.1378855543562345e-03 -2.2872720070194977e-01 +3.9885442511505403e+01 +2.8587521148294350e+03 -1.6540674824260845e+05 -7.3461269021613291e+06 
+3.2000000000000015e+00 -4.1193876247165695e-01 -1.1403769453695110e-03 -2.2953027068797213e-01 +3.9960681664147039e+01 +2.8556989721085920e+03 -1.6559609931937043e+05 -7.2826811947163697e+06 
+3.3000000000000016e+00 -4.1193869090846313e-01 -1.1423164749834902e-03 -2.3034639077067540e-01 +4.0013541353317862e+01 +2.8529814443295795e+03 -1.6564644134412982e+05 -7.2211919039233401e+06 
+3.4000000000000017e+00 -4.1193862088376676e-01 -1.1436696289699522e-03 -2.3117206815670427e-01 +4.0041986265379755e+01 +2.8506624243423244e+03 -1.6554603146397290e+05 -7.1623570570869930e+06 
+3.5000000000000018e+00 -4.1193855265270363e-01 -1.1444019325146161e-03 -2.3200379060415893e-01 +4.0043982033717541e+01 +2.8488044995925943e+03 -1.6528313098309268e+05 -7.1068735729854601e+06 
+3.6000000000000019e+00 -4.1193848647050790e-01 -1.1444789558119376e-03 -2.3283802936892500e-01 +4.0017495391951321e+01 +2.8474700091264026e+03 -1.6484600616976025e+05 -7.0554375417144177e+06 
+3.7000000000000020e+00 -4.1193842259252506e-01 -1.1438663152161406e-03 -2.3367123725308869e-01 +3.9960494192939905e+01 +2.8467210118918820e+03 -1.6422292827168797e+05 -7.0087440998771060e+06 
+3.8000000000000020e+00 -4.1193836127423078e-01 -1.1425296767330398e-03 -2.3449984662464399e-01 +3.9870947495756361e+01 +2.8466192552426560e+03 -1.6340217392327142e+05 -6.9674873055348350e+06 
+3.9000000000000021e+00 -4.1193830277121068e-01 -1.1404347595685706e-03 -2.3532027098894842e-01 +3.9746825655440269e+01 +2.8472262043291453e+03 -1.6237202557509998e+05 -6.9323602851330163e+06 
+4.0000000000000018e+00 -4.1193824733896722e-01 -1.1375475178713376e-03 -2.3612894599912237e-01 +3.9586109800943120e+01 +2.8486046255954743e+03 -1.6112080396056696e+05 -6.9040624341333108e+06 
+4.1000000000000014e+00 -4.1193819512572982e-01 -1.1338447770232014e-03 -2.3692327775729877e-01 +3.9387664221683536e+01 +2.8508652278402533e+03 -1.5964171778273027e+05 -6.8835386105563063e+06 
+4.2000000000000011e+00 -4.1193814582098837e-01 -1.1293914650260385e-03 -2.3770216607662439e-01 +3.9154078993914631e+01 +2.8540400658555059e+03 -1.5795005692851575e+05 -6.8710679280710472e+06 
+4.3000000000000007e+00 -4.1193809898484790e-01 -1.1242978652675625e-03 -2.3846365638193068e-01 +3.8889519688011482e+01 +2.8580613225576290e+03 -1.5607076716638298e+05 -6.8662335995994359e+06 
+4.4000000000000004e+00 -4.1193805417727208e-01 -1.1186746317106220e-03 -2.3920576695700238e-01 +3.8598168176264167e+01 +2.8628596503696463e+03 -1.5402890883296481e+05 -6.8686076584432004e+06 
+4.5000000000000000e+00 -4.1193801095800292e-01 -1.1126324142959419e-03 -2.3992654564168675e-01 +3.8284206109276113e+01 +2.8683662138822210e+03 -1.5184954040322243e+05 -6.8777642602659408e+06 
+4.5999999999999996e+00 -4.1193796888653211e-01 -1.1062818619586843e-03 -2.4062407365545063e-01 +3.7951815011134869e+01 +2.8745127600389264e+03 -1.4955771905984447e+05 -6.8932799958139136e+06 
+4.6999999999999993e+00 -4.1193792752212655e-01 -1.0997336169488215e-03 -2.4129646211421485e-01 +3.7605176110047140e+01 +2.8812315441863384e+03 -1.4717849970865392e+05 -6.9147335078778043e+06 
+4.7999999999999989e+00 -4.1193788642376572e-01 -1.0930983184031767e-03 -2.4194186075279936e-01 +3.7248470443219283e+01 +2.8884554962715401e+03 -1.4473693558551985e+05 -6.9417062638951158e+06 
+4.8999999999999986e+00 -4.1193784515014692e-01 -1.0864865965508478e-03 -2.4255845711582896e-01 +3.6885878683880982e+01 +2.8961181995225829e+03 -1.4225807725024709e+05 -6.9737824277990013e+06 
+4.9999999999999982e+00 -4.1193780325967105e-01 -1.0800090773412185e-03 -2.4314447850974749e-01 +3.6521581278282639e+01 +2.9041539229863142e+03 -1.3976697338399288e+05 -7.0105489869927429e+06 
+5.0999999999999979e+00 -4.1193776031042584e-01 -1.0737763742533026e-03 -2.4369819438795165e-01 +3.6159758203753668e+01 +2.9124976643025211e+03 -1.3728866938673510e+05 -7.0515959363063872e+06 
+5.1999999999999975e+00 -4.1193771586015687e-01 -1.0678990955293836e-03 -2.4421792043276763e-01 +3.5804589180500138e+01 +2.9210852239910309e+03 -1.3484820860146510e+05 -7.0965166060176920e+06 
+5.2999999999999972e+00 -4.1193766946627985e-01 -1.0624878355326016e-03 -2.4470201676158265e-01 +3.5460253418520878e+01 +2.9298531657837761e+03 -1.3247063085681823e+05 -7.1449074476259053e+06 
+5.3999999999999968e+00 -4.1193762068583817e-01 -1.0576531786231867e-03 -2.4514889375214796e-01 +3.5130929727508672e+01 +2.9387389242001645e+03 -1.3018097308938294e+05 -7.1963685202538688e+06 
+5.4999999999999964e+00 -4.1193756907549844e-01 -1.0535056963041944e-03 -2.4555701289578269e-01 +3.4820796435063315e+01 +2.9476808180670914e+03 -1.2800426888430915e+05 -7.2505035346002225e+06 
+5.5999999999999961e+00 -4.1193751419153879e-01 -1.0501559461508047e-03 -2.4592488811439539e-01 +3.4534031349276482e+01 +2.9566180694874988e+03 -1.2596554823794827e+05 -7.3069199137205333e+06 
+5.6999999999999957e+00 -4.1193745558982031e-01 -1.0477144698770250e-03 -2.4625108989372305e-01 +3.4274811710111663e+01 +2.9654908803745407e+03 -1.2408983730358309e+05 -7.3652291360983197e+06 
+5.7999999999999954e+00 -4.1193739282578584e-01 -1.0462917956479505e-03 -2.4653424553373762e-01 +3.4047314249441101e+01 +2.9742404330955624e+03 -1.2240215872212536e+05 -7.4250467149347486e+06 
+5.8999999999999950e+00 -4.1193732545444051e-01 -1.0459984315593334e-03 -2.4677304171655118e-01 +3.3855714996728651e+01 +2.9828089348434505e+03 -1.2092753048737065e+05 -7.4859923835707027e+06 
+5.9999999999999947e+00 -4.1193725303042900e-01 -1.0469439607719805e-03 -2.4696614821598786e-01 +3.3704131681756365e+01 +2.9911333721033529e+03 -1.1969065041879380e+05 -7.5476532418762371e+06 
+6.0999999999999943e+00 -4.1193717520726686e-01 -1.0492213650324814e-03 -2.4711608843553259e-01 +3.3595021490837134e+01 +2.9991131802965624e+03 -1.1870569325584405e+05 -7.6091689728777036e+06 
+6.1999999999999940e+00 -4.1193709220548047e-01 -1.0527971390122462e-03 -2.4723076369447072e-01 +3.3526529712117721e+01 +3.0067591849491887e+03 -1.1796160227445768e+05 -7.6701062724106871e+06 
+6.2999999999999936e+00 -4.1193700442931391e-01 -1.0575677650806773e-03 -2.4732088508741559e-01 +3.3495158364423389e+01 +3.0141886942764686e+03 -1.1743795462336109e+05 -7.7306794997744597e+06 
+6.3999999999999932e+00 -4.1193691228316875e-01 -1.0634288850911076e-03 -2.4739726600541226e-01 +3.3497382237971500e+01 +3.0215218933094375e+03 -1.1711410390269918e+05 -7.7911247484406875e+06 
+6.4999999999999929e+00 -4.1193681617171751e-01 -1.0702760864528382e-03 -2.4747068334498948e-01 +3.3529674742943627e+01 +3.0288783246399184e+03 -1.1696939808146209e+05 -7.8516753605796834e+06 
+6.5999999999999925e+00 -4.1193671649995478e-01 -1.0780048987786084e-03 -2.4755187109998658e-01 +3.3588507827192743e+01 +3.0363767712023741e+03 -1.1698317913831490e+05 -7.9125613938440997e+06 
+6.6999999999999922e+00 -4.1193661367318263e-01 -1.0865107929545258e-03 -2.4765152227703055e-01 +3.3670351955418653e+01 +3.0441352938427653e+03 -1.1713478303366454e+05 -7.9740098077971693e+06 
+6.7999999999999918e+00 -4.1193650809704174e-01 -1.0956891788211646e-03 -2.4778028430297097e-01 +3.3771676058607255e+01 +3.0522711464816925e+03 -1.1740353953769291e+05 -8.0362440811015442e+06 
+6.8999999999999915e+00 -4.1193640017751537e-01 -1.1054354027490395e-03 -2.4794875923467843e-01 +3.3888947466673741e+01 +3.0609007854831084e+03 -1.1776877192661335e+05 -8.0994842753377864e+06 
+6.9999999999999911e+00 -4.1193629032095480e-01 -1.1156447454193036e-03 -2.4816749985429948e-01 +3.4018631858309632e+01 +3.0701397951776917e+03 -1.1820979680429569e+05 -8.1639466918425616e+06 
+7.0999999999999908e+00 -4.1193617893409729e-01 -1.1262124211100857e-03 -2.4844700766550307e-01 +3.4157193255233047e+01 +3.0801028550586434e+03 -1.1870592418701531e+05 -8.2298437384181758e+06 
+7.1999999999999904e+00 -4.1193606642404623e-01 -1.1370335745967443e-03 -2.4879773522603610e-01 +3.4301093935309083e+01 +3.0909037859968580e+03 -1.1923645708404257e+05 -8.2973841612362005e+06 
+7.2999999999999901e+00 -4.1193595319835502e-01 -1.1480032798577026e-03 -2.4923007545526080e-01 +3.4446794411631622e+01 +3.1026553493274291e+03 -1.1978069149831813e+05 -8.3667721088195611e+06 
+7.3999999999999897e+00 -4.1193583966496550e-01 -1.1590165360274665e-03 -2.4975436928795983e-01 +3.4590753322215562e+01 +3.1154693963055888e+03 -1.2031791588191346e+05 -8.4382078584165219e+06 
+7.4999999999999893e+00 -4.1193572623227148e-01 -1.1699682684903367e-03 -2.5038089763302329e-01 +3.4729427475863901e+01 +3.1294567167480077e+03 -1.2082741151778500e+05 -8.5118871111612655e+06 
+7.5999999999999890e+00 -4.1193561330912476e-01 -1.1807533263017572e-03 -2.5111988071287999e-01 +3.4859271786433979e+01 +3.1447270312891978e+03 -1.2128845223414031e+05 -8.5880009775884338e+06 
+7.6999999999999886e+00 -4.1193550130483270e-01 -1.1912664772415398e-03 -2.5198147793986492e-01 +3.4976739140124728e+01 +3.1613889897678287e+03 -1.2168030374876515e+05 -8.6667359792158380e+06 
+7.7999999999999883e+00 -4.1193539062920487e-01 -1.2014024101667960e-03 -2.5297578233441598e-01 +3.5078280477038625e+01 +3.1795500709867729e+03 -1.2198222424735839e+05 -8.7482735996836107e+06 
+7.8999999999999879e+00 -4.1193528169252885e-01 -1.2110557295359503e-03 -2.5411282317921202e-01 +3.5160344638366972e+01 +3.1993166321101326e+03 -1.2217346359218397e+05 -8.8327905217926055e+06 
+7.9999999999999876e+00 -4.1193517490731912e-01 -1.2201227136596163e-03 -2.5540242274016822e-01 +3.5219517929638258e+01 +3.2208034784368465e+03 -1.2223411374998266e+05 -8.9205290812900532e+06 
+8.0999999999999872e+00 -4.1193507066590113e-01 -1.2284975787167399e-03 -2.5684210082876568e-01 +3.5254118896636975e+01 +3.2440622748603641e+03 -1.2215667274197692e+05 -9.0118932601750940e+06 
+8.1999999999999869e+00 -4.1193496896152559e-01 -1.2361302673560537e-03 -2.5842057886089115e-01 +3.5265092463877544e+01 +3.2690140859505423e+03 -1.2195005535300435e+05 -9.1069385170302484e+06 
+8.2999999999999865e+00 -4.1193486963783843e-01 -1.2430171569815472e-03 -2.6012567422267718e-01 +3.5254256605658469e+01 +3.2955390659989280e+03 -1.2162728620136256e+05 -9.2055149691647068e+06 
+8.3999999999999861e+00 -4.1193477253839511e-01 -1.2491551638197595e-03 -2.6194512412925597e-01 +3.5223431853136809e+01 +3.3235169410485646e+03 -1.2120139934208638e+05 -9.3074721121291332e+06 
+8.4999999999999858e+00 -4.1193467750662055e-01 -1.2545413051184711e-03 -2.6386671103001375e-01 +3.5174441518864477e+01 +3.3528284022736880e+03 -1.2068544278268574e+05 -9.4126641011013556e+06 
+8.5999999999999854e+00 -4.1193458438577918e-01 -1.2591727008967257e-03 -2.6587826652124069e-01 +3.5109111733994354e+01 +3.3833551782236113e+03 -1.2009247859264049e+05 -9.5209500810863171e+06 
+8.6999999999999851e+00 -4.1193449301899415e-01 -1.2630465797816932e-03 -2.6796767024979440e-01 +3.5029271619971219e+01 +3.4149800204181820e+03 -1.1943558383632076e+05 -9.6321941303498857e+06 
+8.7999999999999847e+00 -4.1193440324921116e-01 -1.2661602800446029e-03 -2.7012285497186711e-01 +3.4936753302684906e+01 +3.4475867979426339e+03 -1.1872785054131689e+05 -9.7462656961344946e+06 
+8.8999999999999844e+00 -4.1193431491922744e-01 -1.2685112544292445e-03 -2.7233180418299918e-01 +3.4833392049070554e+01 +3.4810604603468491e+03 -1.1798238640982263e+05 -9.8630394358320124e+06 
+8.9999999999999840e+00 -4.1193422787164685e-01 -1.2700970733586421e-03 -2.7458255789033686e-01 +3.4721026356842287e+01 +3.5152871424047030e+03 -1.1721231526379546e+05 -9.9823956915376056e+06 
+9.0999999999999837e+00 -4.1193414194890809e-01 -1.2709154265422599e-03 -2.7686321060796426e-01 +3.4601497986867102e+01 +3.5501541353021985e+03 -1.1643077712115670e+05 -1.0104220373268206e+07 
+9.1999999999999833e+00 -4.1193405699326330e-01 -1.2709641298751292e-03 -2.7916191433047316e-01 +3.4476652162934997e+01 +3.5855499409322970e+03 -1.1565092928104132e+05 -1.0228405203453988e+07 
+9.2999999999999829e+00 -4.1193397284676109e-01 -1.2702411244461631e-03 -2.8146688177029383e-01 +3.4348337532001487e+01 +3.6213643372639044e+03 -1.1488594599762699e+05 -1.0354848029565146e+07 
+9.3999999999999826e+00 -4.1193388935127268e-01 -1.2687444835771770e-03 -2.8376638379614966e-01 +3.4218406364656005e+01 +3.6574883319286664e+03 -1.1414901955965196e+05 -1.0483452604882589e+07 
+9.4999999999999822e+00 -4.1193380634843979e-01 -1.2664724141098409e-03 -2.8604875671954394e-01 +3.4088714579034580e+01 +3.6938143026782882e+03 -1.1345336032159743e+05 -1.0614129251739496e+07 
+9.5999999999999819e+00 -4.1193372367972048e-01 -1.2634232598425503e-03 -2.8830239755055381e-01 +3.3961121837529411e+01 +3.7302359098841721e+03 -1.1281219718702804e+05 -1.0746794448233603e+07 
+9.6999999999999815e+00 -4.1193364118633646e-01 -1.2595955051651754e-03 -2.9051577128736650e-01 +3.3837491643460339e+01 +3.7666482370193967e+03 -1.1223877807502737e+05 -1.0881371491557619e+07 
+9.7999999999999812e+00 -4.1193355870929665e-01 -1.2549877791415657e-03 -2.9267740883884552e-01 +3.3719691452803744e+01 +3.8029477535543124e+03 -1.1174637047690275e+05 -1.1017790322345123e+07 
+9.8999999999999808e+00 -4.1193347608937453e-01 -1.2495988567150856e-03 -2.9477591046249935e-01 +3.3609592699683922e+01 +3.8390323812914762e+03 -1.1134826151132595e+05 -1.1155987835206235e+07 
+9.9999999999999805e+00 -4.1193339316054345e-01 -1.2434257067303462e-03 -2.9680078641907215e-01 +3.3508855983324779e+01 +3.8747972403817498e+03 -1.1105631355224158e+05 -1.1295836800168727e+07 
+1.0099999999999980e+01 -4.1193330965311331e-01 -1.2364792893755053e-03 -2.9876159415209014e-01 +3.3417631253818385e+01 +3.9103236859489648e+03 -1.1087040225189953e+05 -1.1437539210659210e+07 
