# trajectory
# s[mm] rx[mm] ry[mm] rz[mm] px[rad] py[rad] pz[rad]
0.0000000000000000e+00 -4.6467000000000001e+00 +0.0000000000000000e+00 +0.0000000000000000e+00 +0.0000000000000000e+00 +0.0000000000000000e+00 +1.0000000000000000e+00
-1.0000000000000001e-01 -4.6466956873046046e+00 +0.0000000000000000e+00 -9.9999999876004386e-02 -8.6253910469226747e-05 +0.0000000000000000e+00 +9.9999999628013148e-01
-2.0000000000000001e-01 -4.6466827492174225e+00 +0.0000000000000000e+00 -1.9999999900803495e-01 -1.7250783545745362e-04 +0.0000000000000000e+00 +9.9999998512052324e-01
-3.0000000000000004e-01 -4.6466611857370852e+00 +0.0000000000000000e+00 -2.9999999665211757e-01 -2.5876177329725846e-04 +0.0000000000000000e+00 +9.9999996652117173e-01
-4.0000000000000002e-01 -4.6466309968623882e+00 +0.0000000000000000e+00 -3.9999999206427772e-01 -3.4501572237674225e-04 +0.0000000000000000e+00 +9.9999994048207386e-01
-5.0000000000000000e-01 -4.6465921825922871e+00 +0.0000000000000000e+00 -4.9999998450054067e-01 -4.3126968113952181e-04 +0.0000000000000000e+00 +9.9999990700322672e-01
-5.9999999999999998e-01 -4.6465447429258884e+00 +0.0000000000000000e+00 -5.9999997321693133e-01 -5.1752364808472292e-04 +0.0000000000000000e+00 +9.9999986608462788e-01
-6.9999999999999996e-01 -4.6464886778624459e+00 +0.0000000000000000e+00 -6.9999995746947441e-01 -6.0377762176697341e-04 +0.0000000000000000e+00 +9.9999981772627511e-01
-7.9999999999999993e-01 -4.6464239874013566e+00 +0.0000000000000000e+00 -7.9999993651419443e-01 -6.9003160079639659e-04 +0.0000000000000000e+00 +9.9999976192816664e-01
-8.9999999999999991e-01 -4.6463506715421525e+00 +0.0000000000000000e+00 -8.9999990960711584e-01 -7.7628558383860478e-04 +0.0000000000000000e+00 +9.9999969869030081e-01
-9.9999999999999989e-01 -4.6462687302844978e+00 +0.0000000000000000e+00 -9.9999987600426266e-01 -8.6253956961469293e-04 +0.0000000000000000e+00 +9.9999962801267628e-01
-1.0999999999999999e+00 -4.6461781636281794e+00 +0.0000000000000000e+00 -1.0999998349616591e+00 -9.4879355690123245e-04 +0.0000000000000000e+00 +9.9999954989529194e-01
-1.2000000000000000e+00 -4.6460789715731057e+00 +0.0000000000000000e+00 -1.1999997857353291e+00 -1.0350475445302654e-03 +0.0000000000000000e+00 +9.9999946433814690e-01
-1.3000000000000000e+00 -4.6459711541192990e+00 +0.0000000000000000e+00 -1.2999997275812964e+00 -1.1213015313892988e-03 +0.0000000000000000e+00 +9.9999937134124028e-01
-1.4000000000000001e+00 -4.6458547112668889e+00 +0.0000000000000000e+00 -1.3999996597555850e+00 -1.2075555164212989e-03 +0.0000000000000000e+00 +9.9999927090457164e-01
-1.5000000000000002e+00 -4.6457296430161090e+00 +0.0000000000000000e+00 -1.4999995815142186e+00 -1.2938094986246860e-03 +0.0000000000000000e+00 +9.9999916302814040e-01
-1.6000000000000003e+00 -4.6455959493672898e+00 +0.0000000000000000e+00 -1.5999994921132210e+00 -1.3800634770533286e-03 +0.0000000000000000e+00 +9.9999904771194625e-01
-1.7000000000000004e+00 -4.6454536303208540e+00 +0.0000000000000000e+00 -1.6999993908086157e+00 -1.4663174508165392e-03 +0.0000000000000000e+00 +9.9999892495598885e-01
-1.8000000000000005e+00 -4.6453026858773097e+00 +0.0000000000000000e+00 -1.7999992768564266e+00 -1.5525714190790690e-03 +0.0000000000000000e+00 +9.9999879476026798e-01
-1.9000000000000006e+00 -4.6451431160372474e+00 +0.0000000000000000e+00 -1.8999991495126771e+00 -1.6388253810611032e-03 +0.0000000000000000e+00 +9.9999865712478353e-01
-2.0000000000000004e+00 -4.6449749208013316e+00 +0.0000000000000000e+00 -1.9999990080333911e+00 -1.7250793360382571e-03 +0.0000000000000000e+00 +9.9999851204953516e-01
-2.1000000000000005e+00 -4.6447981001702958e+00 +0.0000000000000000e+00 -2.0999988516745920e+00 -1.8113332833383576e-03 +0.0000000000000000e+00 +9.9999835953452276e-01
-2.2000000000000006e+00 -4.6446126541449413e+00 +0.0000000000000000e+00 -2.1999986796923037e+00 -1.8975872223060887e-03 +0.0000000000000000e+00 +9.9999819957974612e-01
-2.3000000000000007e+00 -4.6444185827261348e+00 +0.0000000000000000e+00 -2.2999984913425493e+00 -1.9838411522676430e-03 +0.0000000000000000e+00 +9.9999803218520511e-01
-2.4000000000000008e+00 -4.6442158859148117e+00 +0.0000000000000000e+00 -2.3999982858813524e+00 -2.0700950725275101e-03 +0.0000000000000000e+00 +9.9999785735089985e-01
-2.5000000000000009e+00 -4.6440045637119773e+00 +0.0000000000000000e+00 -2.4999980625647371e+00 -2.1563489823684854e-03 +0.0000000000000000e+00 +9.9999767507683046e-01
-2.6000000000000010e+00 -4.6437846161187100e+00 +0.0000000000000000e+00 -2.5999978206487264e+00 -2.2426028810516759e-03 +0.0000000000000000e+00 +9.9999748536299726e-01
-2.7000000000000011e+00 -4.6435560431361642e+00 +0.0000000000000000e+00 -2.6999975593893444e+00 -2.3288567678165085e-03 +0.0000000000000000e+00 +9.9999728820940059e-01
-2.8000000000000012e+00 -4.6433188447655702e+00 +0.0000000000000000e+00 -2.7999972780426146e+00 -2.4151106418807398e-03 +0.0000000000000000e+00 +9.9999708361604112e-01
-2.9000000000000012e+00 -4.6430730210082380e+00 +0.0000000000000000e+00 -2.8999969758645605e+00 -2.5013645024404667e-03 +0.0000000000000000e+00 +9.9999687158291950e-01
-3.0000000000000013e+00 -4.6428185718655595e+00 +0.0000000000000000e+00 -2.9999966521112063e+00 -2.5876183486701378e-03 +0.0000000000000000e+00 +9.9999665211003663e-01
-3.1000000000000014e+00 -4.6425554973390097e+00 +0.0000000000000000e+00 -3.0999963060385758e+00 -2.6738721797225666e-03 +0.0000000000000000e+00 +9.9999642519739362e-01
-3.2000000000000015e+00 -4.6422837974301494e+00 +0.0000000000000000e+00 -3.1999959369026931e+00 -2.7601259947289437e-03 +0.0000000000000000e+00 +9.9999619084499181e-01
-3.3000000000000016e+00 -4.6420034721406278e+00 +0.0000000000000000e+00 -3.2999955439595823e+00 -2.8463797927988539e-03 +0.0000000000000000e+00 +9.9999594905283251e-01
-3.4000000000000017e+00 -4.6417145214721840e+00 +0.0000000000000000e+00 -3.3999951264652677e+00 -2.9326335730202897e-03 +0.0000000000000000e+00 +9.9999569982091741e-01
-3.5000000000000018e+00 -4.6414169454266494e+00 +0.0000000000000000e+00 -3.4999946836757738e+00 -3.0188873344596705e-03 +0.0000000000000000e+00 +9.9999544314924849e-01
-3.6000000000000019e+00 -4.6411107440059496e+00 +0.0000000000000000e+00 -3.5999942148471256e+00 -3.1051410761618586e-03 +0.0000000000000000e+00 +9.9999517903782775e-01
-3.7000000000000020e+00 -4.6407959172121069e+00 +0.0000000000000000e+00 -3.6999937192353478e+00 -3.1913947971501794e-03 +0.0000000000000000e+00 +9.9999490748665754e-01
-3.8000000000000020e+00 -4.6404724650472433e+00 +0.0000000000000000e+00 -3.7999931960964655e+00 -3.2776484964264414e-03 +0.0000000000000000e+00 +9.9999462849574039e-01
-3.9000000000000021e+00 -4.6401403875135800e+00 +0.0000000000000000e+00 -3.8999926446865043e+00 -3.3639021729709568e-03 +0.0000000000000000e+00 +9.9999434206507920e-01
-4.0000000000000018e+00 -4.6397996846134415e+00 +0.0000000000000000e+00 -3.9999920642614901e+00 -3.4501558257425641e-03 +0.0000000000000000e+00 +9.9999404819467708e-01
-4.1000000000000014e+00 -4.6394503563492586e+00 +0.0000000000000000e+00 -4.0999914540774487e+00 -3.5364094536788119e-03 +0.0000000000000000e+00 +9.9999374688453724e-01
-4.2000000000000011e+00 -4.6390924027235689e+00 +0.0000000000000000e+00 -4.1999908133904063e+00 -3.6226630556977510e-03 +0.0000000000000000e+00 +9.9999343813466335e-01
-4.3000000000000007e+00 -4.6387258237390192e+00 +0.0000000000000000e+00 -4.2999901414563899e+00 -3.7089166306996948e-03 +0.0000000000000000e+00 +9.9999312194505940e-01
-4.4000000000000004e+00 -4.6383506193983663e+00 +0.0000000000000000e+00 -4.3999894375314268e+00 -3.7951701775673480e-03 +0.0000000000000000e+00 +9.9999279831572951e-01
-4.5000000000000000e+00 -4.6379667897044810e+00 +0.0000000000000000e+00 -4.4999887008715449e+00 -3.8814236951657723e-03 +0.0000000000000000e+00 +9.9999246724667812e-01
-4.5999999999999996e+00 -4.6375743346603473e+00 +0.0000000000000000e+00 -4.5999879307327722e+00 -3.9676771823423471e-03 +0.0000000000000000e+00 +9.9999212873790999e-01
-4.6999999999999993e+00 -4.6371732542690660e+00 +0.0000000000000000e+00 -4.6999871263711368e+00 -4.0539306379267304e-03 +0.0000000000000000e+00 +9.9999178278943013e-01
-4.7999999999999989e+00 -4.6367635485338550e+00 +0.0000000000000000e+00 -4.7999862870426684e+00 -4.1401840607308161e-03 +0.0000000000000000e+00 +9.9999142940124397e-01
-4.8999999999999986e+00 -4.6363452174580528e+00 +0.0000000000000000e+00 -4.8999854120033959e+00 -4.2264374495486904e-03 +0.0000000000000000e+00 +9.9999106857335729e-01
-4.9999999999999982e+00 -4.6359182610451191e+00 +0.0000000000000000e+00 -4.9999845005093499e+00 -4.3126908031565830e-03 +0.0000000000000000e+00 +9.9999070030577597e-01
-5.0999999999999979e+00 -4.6354826792986366e+00 +0.0000000000000000e+00 -5.0999835518165613e+00 -4.3989441203128197e-03 +0.0000000000000000e+00 +9.9999032459850645e-01
-5.1999999999999975e+00 -4.6350384722223135e+00 +0.0000000000000000e+00 -5.1999825651810614e+00 -4.4851973997577701e-03 +0.0000000000000000e+00 +9.9998994145155540e-01
-5.2999999999999972e+00 -4.6345856398199849e+00 +0.0000000000000000e+00 -5.2999815398588828e+00 -4.5714506402137955e-03 +0.0000000000000000e+00 +9.9998955086492980e-01
-5.3999999999999968e+00 -4.6341241820956141e+00 +0.0000000000000000e+00 -5.3999804751060587e+00 -4.6577038403851920e-03 +0.0000000000000000e+00 +9.9998915283863710e-01
-5.4999999999999964e+00 -4.6336540990532944e+00 +0.0000000000000000e+00 -5.4999793701786217e+00 -4.7439569989581321e-03 +0.0000000000000000e+00 +9.9998874737268517e-01
-5.5999999999999961e+00 -4.6331753906972528e+00 +0.0000000000000000e+00 -5.5999782243326068e+00 -4.8302101146006065e-03 +0.0000000000000000e+00 +9.9998833446708202e-01
-5.6999999999999957e+00 -4.6326880570318503e+00 +0.0000000000000000e+00 -5.6999770368240501e+00 -4.9164631859623604e-03 +0.0000000000000000e+00 +9.9998791412183630e-01
-5.7999999999999954e+00 -4.6321920980615818e+00 +0.0000000000000000e+00 -5.7999758069089866e+00 -5.0027162116748286e-03 +0.0000000000000000e+00 +9.9998748633695678e-01
-5.8999999999999950e+00 -4.6316875137910829e+00 +0.0000000000000000e+00 -5.8999745338434542e+00 -5.0889691903510722e-03 +0.0000000000000000e+00 +9.9998705111245290e-01
-5.9999999999999947e+00 -4.6311743042251265e+00 +0.0000000000000000e+00 -5.9999732168834905e+00 -5.1752221205857048e-03 +0.0000000000000000e+00 +9.9998660844833442e-01
-6.0999999999999943e+00 -4.6306524693686280e+00 +0.0000000000000000e+00 -6.0999718552851343e+00 -5.2614750009577996e-03 +0.0000000000000000e+00 +9.9998615834461135e-01
-6.1999999999999940e+00 -4.6301220092266435e+00 +0.0000000000000000e+00 -6.1999704483044260e+00 -5.3477278300635527e-03 +0.0000000000000000e+00 +9.9998570080129412e-01
-6.2999999999999936e+00 -4.6295829238043691e+00 +0.0000000000000000e+00 -6.2999689951974069e+00 -5.4339806065490381e-03 +0.0000000000000000e+00 +9.9998523581839316e-01
-6.3999999999999932e+00 -4.6290352131071311e+00 +0.0000000000000000e+00 -6.3999674952201193e+00 -5.5202333291132265e-03 +0.0000000000000000e+00 +9.9998476339591891e-01
-6.4999999999999929e+00 -4.6284788771403855e+00 +0.0000000000000000e+00 -6.4999659476286054e+00 -5.6064859965080337e-03 +0.0000000000000000e+00 +9.9998428353388169e-01
-6.5999999999999925e+00 -4.6279139159097085e+00 +0.0000000000000000e+00 -6.5999643516789099e+00 -5.6927386075383722e-03 +0.0000000000000000e+00 +9.9998379623229194e-01
-6.6999999999999922e+00 -4.6273403294207949e+00 +0.0000000000000000e+00 -6.6999627066270788e+00 -5.7789911610622007e-03 +0.0000000000000000e+00 +9.9998330149115999e-01
-6.7999999999999918e+00 -4.6267581176794499e+00 +0.0000000000000000e+00 -6.7999610117291578e+00 -5.8652436559905813e-03 +0.0000000000000000e+00 +9.9998279931049594e-01
-6.8999999999999915e+00 -4.6261672806915852e+00 +0.0000000000000000e+00 -6.8999592662411944e+00 -5.9514960912877340e-03 +0.0000000000000000e+00 +9.9998228969031000e-01
-6.9999999999999911e+00 -4.6255678184632130e+00 +0.0000000000000000e+00 -6.9999574694192361e+00 -6.0377484659710984e-03 +0.0000000000000000e+00 +9.9998177263061216e-01
-7.0999999999999908e+00 -4.6249597310004420e+00 +0.0000000000000000e+00 -7.0999556205193333e+00 -6.1240007791113944e-03 +0.0000000000000000e+00 +9.9998124813141231e-01
-7.1999999999999904e+00 -4.6243430183094709e+00 +0.0000000000000000e+00 -7.1999537187975360e+00 -6.2102530298326873e-03 +0.0000000000000000e+00 +9.9998071619272000e-01
-7.2999999999999901e+00 -4.6237176803965836e+00 +0.0000000000000000e+00 -7.2999517635098945e+00 -6.2965052173124519e-03 +0.0000000000000000e+00 +9.9998017681454476e-01
-7.3999999999999897e+00 -4.6230837172681420e+00 +0.0000000000000000e+00 -7.3999497539124617e+00 -6.3827573407816427e-03 +0.0000000000000000e+00 +9.9997962999689571e-01
-7.4999999999999893e+00 -4.6224411289305847e+00 +0.0000000000000000e+00 -7.4999476892612913e+00 -6.4690093995247661e-03 +0.0000000000000000e+00 +9.9997907573978195e-01
-7.5999999999999890e+00 -4.6217899153904165e+00 +0.0000000000000000e+00 -7.5999455688124362e+00 -6.5552613928799523e-03 +0.0000000000000000e+00 +9.9997851404321214e-01
-7.6999999999999886e+00 -4.6211300766542083e+00 +0.0000000000000000e+00 -7.6999433918219520e+00 -6.6415133202390305e-03 +0.0000000000000000e+00 +9.9997794490719483e-01
-7.7999999999999883e+00 -4.6204616127285876e+00 +0.0000000000000000e+00 -7.7999411575458941e+00 -6.7277651810476067e-03 +0.0000000000000000e+00 +9.9997736833173800e-01
-7.8999999999999879e+00 -4.6197845236202344e+00 +0.0000000000000000e+00 -7.8999388652403191e+00 -6.8140169748051455e-03 +0.0000000000000000e+00 +9.9997678431684944e-01
-7.9999999999999876e+00 -4.6190988093358767e+00 +0.0000000000000000e+00 -7.9999365141612833e+00 -6.9002687010650491e-03 +0.0000000000000000e+00 +9.9997619286253658e-01
-8.0999999999999872e+00 -4.6184044698822841e+00 +0.0000000000000000e+00 -8.0999341035648449e+00 -6.9865203594279618e-03 +0.0000000000000000e+00 +9.9997559396880642e-01
-8.1999999999999869e+00 -4.6177015052662682e+00 +0.0000000000000000e+00 -8.1999316327070630e+00 -7.0727719494670955e-03 +0.0000000000000000e+00 +9.9997498763566617e-01
-8.2999999999999865e+00 -4.6169899154946856e+00 +0.0000000000000000e+00 -8.2999291008439968e+00 -7.1590234706533926e-03 +0.0000000000000000e+00 +9.9997437386312382e-01
-8.3999999999999861e+00 -4.6162697005744535e+00 +0.0000000000000000e+00 -8.3999265072317080e+00 -7.2452749223486778e-03 +0.0000000000000000e+00 +9.9997375265118804e-01
-8.4999999999999858e+00 -4.6155408605125574e+00 +0.0000000000000000e+00 -8.4999238511262565e+00 -7.3315263038056288e-03 +0.0000000000000000e+00 +9.9997312399986849e-01
-8.5999999999999854e+00 -4.6148033953160628e+00 +0.0000000000000000e+00 -8.5999211317837041e+00 -7.4177776141677457e-03 +0.0000000000000000e+00 +9.9997248790917570e-01
-8.6999999999999851e+00 -4.6140573049921265e+00 +0.0000000000000000e+00 -8.6999183484601144e+00 -7.5040288524693168e-03 +0.0000000000000000e+00 +9.9997184437912101e-01
-8.7999999999999847e+00 -4.6133025895480069e+00 +0.0000000000000000e+00 -8.7999155004115508e+00 -7.5902800176353867e-03 +0.0000000000000000e+00 +9.9997119340971696e-01
-8.8999999999999844e+00 -4.6125392489910766e+00 +0.0000000000000000e+00 -8.8999125868940805e+00 -7.6765311084817205e-03 +0.0000000000000000e+00 +9.9997053500097699e-01
-8.9999999999999840e+00 -4.6117672833288310e+00 +0.0000000000000000e+00 -8.9999096071637688e+00 -7.7627821237147687e-03 +0.0000000000000000e+00 +9.9996986915291575e-01
-9.0999999999999837e+00 -4.6109866925689005e+00 +0.0000000000000000e+00 -9.0999065604766862e+00 -7.8490330619316335e-03 +0.0000000000000000e+00 +9.9996919586554889e-01
-9.1999999999999833e+00 -4.6101974767190619e+00 +0.0000000000000000e+00 -9.1999034460889018e+00 -7.9352839216200281e-03 +0.0000000000000000e+00 +9.9996851513889329e-01
-9.2999999999999829e+00 -4.6093996357872484e+00 +0.0000000000000000e+00 -9.2999002632564878e+00 -8.0215347011582446e-03 +0.0000000000000000e+00 +9.9996782697296716e-01
-9.3999999999999826e+00 -4.6085931697815603e+00 +0.0000000000000000e+00 -9.3998970112355185e+00 -8.1077853988151104e-03 +0.0000000000000000e+00 +9.9996713136778981e-01
-9.4999999999999822e+00 -4.6077780787102762e+00 +0.0000000000000000e+00 -9.4998936892820698e+00 -8.1940360127499504e-03 +0.0000000000000000e+00 +9.9996642832338212e-01
-9.5999999999999819e+00 -4.6069543625818659e+00 +0.0000000000000000e+00 -9.5998902966522213e+00 -8.2802865410125503e-03 +0.0000000000000000e+00 +9.9996571783976607e-01
-9.6999999999999815e+00 -4.6061220214049978e+00 +0.0000000000000000e+00 -9.6998868326020506e+00 -8.3665369815431132e-03 +0.0000000000000000e+00 +9.9996499991696530e-01
-9.7999999999999812e+00 -4.6052810551885539e+00 +0.0000000000000000e+00 -9.7998832963876428e+00 -8.4527873321722201e-03 +0.0000000000000000e+00 +9.9996427455500481e-01
-9.8999999999999808e+00 -4.6044314639416362e+00 +0.0000000000000000e+00 -9.8998796872650807e+00 -8.5390375906207860e-03 +0.0000000000000000e+00 +9.9996354175391111e-01
-9.9999999999999805e+00 -4.6035732476735820e+00 +0.0000000000000000e+00 -9.9998760044904547e+00 -8.6252877545000186e-03 +0.0000000000000000e+00 +9.9996280151371231e-01
-1.0099999999999980e+01 -4.6027064063939713e+00 +0.0000000000000000e+00 -1.0099872247319855e+01 -8.7115378213256482e-03 +0.0000000000000000e+00 +9.9996205383443804e-01
-1.0199999999999980e+01 -4.6018309401126327e+00 +0.0000000000000000e+00 -1.0199868415009375e+01 -8.7977877886754111e-03 +0.0000000000000000e+00 +9.9996129871611805e-01
-1.0299999999999979e+01 -4.6009468488396257e+00 +0.0000000000000000e+00 -1.0299864506815112e+01 -8.8840376543470028e-03 +0.0000000000000000e+00 +9.9996053615878067e-01
-1.0399999999999979e+01 -4.6000541325852184e+00 +0.0000000000000000e+00 -1.0399860521993165e+01 -8.9702874163725046e-03 +0.0000000000000000e+00 +9.9995976616245297e-01
-1.0499999999999979e+01 -4.5991527913598640e+00 +0.0000000000000000e+00 -1.0499856459799638e+01 -9.0565370730183985e-03 +0.0000000000000000e+00 +9.9995898872716027e-01
-1.0599999999999978e+01 -4.5982428251741778e+00 +0.0000000000000000e+00 -1.0599852319490633e+01 -9.1427866227855800e-03 +0.0000000000000000e+00 +9.9995820385292611e-01
-1.0699999999999978e+01 -4.5973242340389122e+00 +0.0000000000000000e+00 -1.0699848100322258e+01 -9.2290360644093784e-03 +0.0000000000000000e+00 +9.9995741153977236e-01
-1.0799999999999978e+01 -4.5963970179649349e+00 +0.0000000000000000e+00 -1.0799843801550624e+01 -9.3152853968595708e-03 +0.0000000000000000e+00 +9.9995661178771900e-01
-1.0899999999999977e+01 -4.5954611769632061e+00 +0.0000000000000000e+00 -1.0899839422431841e+01 -9.4015346193403963e-03 +0.0000000000000000e+00 +9.9995580459678379e-01
-1.0999999999999977e+01 -4.5945167110447516e+00 +0.0000000000000000e+00 -1.0999834962222019e+01 -9.4877837312905711e-03 +0.0000000000000000e+00 +9.9995498996698251e-01
-1.1099999999999977e+01 -4.5935636202206434e+00 +0.0000000000000000e+00 -1.1099830420177275e+01 -9.5740327323833047e-03 +0.0000000000000000e+00 +9.9995416789832881e-01
-1.1199999999999976e+01 -4.5926019045019739e+00 +0.0000000000000000e+00 -1.1199825795553723e+01 -9.6602816225263115e-03 +0.0000000000000000e+00 +9.9995333839083378e-01
-1.1299999999999976e+01 -4.5916315638998322e+00 +0.0000000000000000e+00 -1.1299821087607480e+01 -9.7465304018618283e-03 +0.0000000000000000e+00 +9.9995250144450631e-01
-1.1399999999999975e+01 -4.5906525984252831e+00 +0.0000000000000000e+00 -1.1399816295594663e+01 -9.8327790707666268e-03 +0.0000000000000000e+00 +9.9995165705935274e-01
-1.1499999999999975e+01 -4.5896650080893400e+00 +0.0000000000000000e+00 -1.1499811418771390e+01 -9.9190276298520234e-03 +0.0000000000000000e+00 +9.9995080523537661e-01
-1.1599999999999975e+01 -4.5886687929029453e+00 +0.0000000000000000e+00 -1.1599806456393779e+01 -1.0005276079963899e-02 +0.0000000000000000e+00 +9.9994994597257891e-01
-1.1699999999999974e+01 -4.5876639528769436e+00 +0.0000000000000000e+00 -1.1699801407717946e+01 -1.0091524422182703e-02 +0.0000000000000000e+00 +9.9994907927095777e-01
