# multipoles
# s[mm] polynom_b[n=0][T/m^n] polynom_b[n=1][T/m^n] polynom_b[n=2][T/m^n] polynom_b[n=3][T/m^n] polynom_b[n=4][T/m^n] polynom_b[n=5][T/m^n] polynom_b[n=6][T/m^n] 
+0.0000000000000000e+00 -1.7325667908359921e-01 +7.0155294428594559e-04 -2.7554567463013824e-04 -1.5141641776446376e+01 +5.8955630953432319e+02 +9.3626653621079997e+04 -1.7574508390051699e+06 
+1.0000000000000001e-01 -1.7325666625792960e-01 +7.0500660397696977e-04 -1.1097266663520635e-03 -1.5149477074895799e+01 +6.0403873428166321e+02 +9.3471896538628425e+04 -1.8098363142245249e+06 
+2.0000000000000001e-01 -1.7325665385136962e-01 +7.0866955156032355e-04 -1.8888834780415374e-03 -1.5171963159593714e+01 +6.1763097130651363e+02 +9.3414844128267461e+04 -1.8585549511201829e+06 
+3.0000000000000004e-01 -1.7325664165511498e-01 +7.1250372962881957e-04 -2.6249326143225693e-03 -1.5207916691091144e+01 +6.3052609654535922e+02 +9.3448507389833845e+04 -1.9044821751917456e+06 
+4.0000000000000002e-01 -1.7325662946038201e-01 +7.1647107952092358e-04 -3.3297860515349685e-03 -1.5256154292734781e+01 +6.4291709652959582e+02 +9.3565897169051008e+04 -1.9484930059412350e+06 
+5.0000000000000000e-01 -1.7325661705841336e-01 +7.2053354055361975e-04 -4.0153503906253073e-03 -1.5315492519436104e+01 +6.5499685228198859e+02 +9.3760023962825711e+04 -1.9914619818777484e+06 
+5.9999999999999998e-01 -1.7325660424045311e-01 +7.2465305156609906e-04 -4.6935301715616403e-03 -1.5384747895365544e+01 +6.6695820281006559e+02 +9.4023898126222266e+04 -2.0342634614151742e+06 
+6.9999999999999996e-01 -1.7325659079775388e-01 +7.2879155236332360e-04 -5.3762271620694429e-03 -1.5462736954755053e+01 +6.7899393346884210e+02 +9.4350530117756338e+04 -2.0777715740206123e+06 
+7.9999999999999993e-01 -1.7325657652156332e-01 +7.3291098391657845e-04 -6.0753419039712856e-03 -1.5548276235040875e+01 +6.9129680454589356e+02 +9.4732930432889771e+04 -2.1228603532854957e+06 
+8.9999999999999991e-01 -1.7325656120311886e-01 +7.3697328838001955e-04 -6.8027747402535470e-03 -1.5640182271863781e+01 +7.0405957281664541e+02 +9.5164109571343681e+04 -2.1704038444768596e+06 
+9.9999999999999989e-01 -1.7325654463364099e-01 +7.4094041135079711e-04 -7.5704265147086567e-03 -1.5737271662870700e+01 +7.1747500477462722e+02 +9.5637078410641509e+04 -2.2212761676642359e+06 
+1.0999999999999999e+00 -1.7325652660432997e-01 +7.4477430241133710e-04 -8.3901992347666168e-03 -1.5838361070972439e+01 +7.3173589048092083e+02 +9.6144848200616936e+04 -2.2763515865555303e+06 
+1.2000000000000000e+00 -1.7325650690634711e-01 +7.4843691457106244e-04 -9.2739983807084026e-03 -1.5942267206152708e+01 +7.4703508739571396e+02 +9.6680430464130550e+04 -2.3365047161287637e+06 
+1.3000000000000000e+00 -1.7325648533081828e-01 +7.5189020664086204e-04 -1.0233732730293951e-02 -1.6047806884113317e+01 +7.6356551914315560e+02 +9.7236837315388300e+04 -2.4026105225501088e+06 
+1.4000000000000001e+00 -1.7325646166882500e-01 +7.5509614367750113e-04 -1.1281315380503200e-02 -1.6153797036020386e+01 +7.8152019425888579e+02 +9.7807081520664055e+04 -2.4755444107123320e+06 
+1.5000000000000002e+00 -1.7325643571139809e-01 +7.5801669726830616e-04 -1.2428664721375278e-02 -1.6259054708699551e+01 +8.0109222601136150e+02 +9.8384176486530137e+04 -2.5561823214217243e+06 
+1.6000000000000003e+00 -1.7325640724950697e-01 +7.6061384702750970e-04 -1.3687705910684213e-02 -1.6362397101408583e+01 +8.2247486163655219e+02 +9.8961136462763636e+04 -2.6454008736076849e+06 
+1.7000000000000004e+00 -1.7325637607405306e-01 +7.6284958051431361e-04 -1.5070371680177774e-02 -1.6462641557702884e+01 +8.4586149714945350e+02 +9.9530976491909227e+04 -2.7440774327934235e+06 
+1.8000000000000005e+00 -1.7325634197586937e-01 +7.6468589506685709e-04 -1.6588602616441562e-02 -1.6558605611879180e+01 +8.7144568504621702e+02 +1.0008671266860036e+05 -2.8530901548315003e+06 
+1.9000000000000006e+00 -1.7325630474570314e-01 +7.6608479784162024e-04 -1.8254349285095943e-02 -1.6649106983546666e+01 +8.9942117381641697e+02 +1.0062136209988907e+05 -2.9733181702235145e+06 
+2.0000000000000004e+00 -1.7325626417419937e-01 +7.6700830820249923e-04 -2.0079574537908082e-02 -1.6732963784147323e+01 +9.2998193791733490e+02 +1.0112794473199444e+05 -3.1056416534820343e+06 
+2.1000000000000005e+00 -1.7325622013464057e-01 +7.6742856730148586e-04 -2.2071777275500717e-02 -1.6809248908224507e+01 +9.6324681048666400e+02 +1.0160091804377196e+05 -3.2505857060192665e+06 
+2.2000000000000006e+00 -1.7325617286376596e-01 +7.6735439806699369e-04 -2.4217992983089468e-02 -1.6877742926998017e+01 +9.9898628226474136e+02 +1.0203814536536399e+05 -3.4070387397539127e+06 
+2.3000000000000007e+00 -1.7325612269696977e-01 +7.6680238686061193e-04 -2.6499495337965785e-02 -1.6938304932597536e+01 +1.0368688805165473e+03 +1.0243763190908107e+05 -3.5734013603634988e+06 
+2.4000000000000008e+00 -1.7325606996964207e-01 +7.6578910030583873e-04 -2.8897557700302959e-02 -1.6990793123446100e+01 +1.0765630792193622e+03 +1.0279737667577066e+05 -3.7480737405474284e+06 
+2.5000000000000009e+00 -1.7325601501714455e-01 +7.6433110019725309e-04 -3.1393457869940765e-02 -1.7035065530064394e+01 +1.1177374343327942e+03 +1.0311537735242661e+05 -3.9294564002871295e+06 
+2.6000000000000010e+00 -1.7325595817482950e-01 +7.6244494157620820e-04 -3.3968475822438310e-02 -1.7070979962935567e+01 +1.1600605410281541e+03 +1.0338962998113554e+05 -4.1159499999795402e+06 
+2.7000000000000011e+00 -1.7325589977803180e-01 +7.6014717339874921e-04 -3.6603894958161014e-02 -1.7098394035319053e+01 +1.2032010565794465e+03 +1.0361812906193022e+05 -4.3059554402650716e+06 
+2.8000000000000012e+00 -1.7325584016206777e-01 +7.5745433500507789e-04 -3.9281002315737223e-02 -1.7117165064467279e+01 +1.2468277033470861e+03 +1.0379886695158390e+05 -4.4978738677064907e+06 
+2.9000000000000012e+00 -1.7325577966224884e-01 +7.5438295740801631e-04 -4.1981087195209758e-02 -1.7127150112404102e+01 +1.2906092431789884e+03 +1.0392983406807783e+05 -4.6901065491187293e+06 
+3.0000000000000013e+00 -1.7325571861387448e-01 +7.5094956066578181e-04 -4.4685442077642690e-02 -1.7128205912384828e+01 +1.3342144937776591e+03 +1.0400901843402721e+05 -4.8810549409521930e+06 
+3.1000000000000014e+00 -1.7325565735223589e-01 +7.4717065425278348e-04 -4.7375362436001420e-02 -1.7120188884573590e+01 +1.3773123245848101e+03 +1.0403440574080795e+05 -5.0691206619202048e+06 
+3.2000000000000015e+00 -1.7325559621262160e-01 +7.4306273437047714e-04 -5.0032146256942168e-02 -1.7102955060363193e+01 +1.4195716479587570e+03 +1.0400397887713835e+05 -5.2527054464329034e+06 
+3.3000000000000016e+00 -1.7325553553031978e-01 +7.3864228457382194e-04 -5.2637093816053970e-02 -1.7076360105285659e+01 +1.4606614136229778e+03 +1.0391571803509636e+05 -5.4302111095927740e+06 
+3.4000000000000017e+00 -1.7325547564061006e-01 +7.3392577352063141e-04 -5.5171508911710666e-02 -1.7040259254963189e+01 +1.5002506314339762e+03 +1.0376760030286586e+05 -5.6000396465790765e+06 
+3.5000000000000018e+00 -1.7325541687878573e-01 +7.2892965442177590e-04 -5.7616696363184353e-02 -1.6994507305225643e+01 +1.5380083245485735e+03 +1.0355759958546858e+05 -5.7605930078929411e+06 
+3.6000000000000019e+00 -1.7325535958013441e-01 +7.2367036460936618e-04 -5.9953964535505631e-02 -1.6938958602462094e+01 +1.5736035761008318e+03 +1.0328368651505954e+05 -5.9102733105097394e+06 
+3.7000000000000020e+00 -1.7325530407995557e-01 +7.1816432315175522e-04 -6.2164623326306172e-02 -1.6873466976198021e+01 +1.6067054904261690e+03 +1.0294382802754725e+05 -6.0474826475341702e+06 
+3.8000000000000020e+00 -1.7325525071355349e-01 +7.1242793095132792e-04 -6.4229985263725142e-02 -1.6797885749086582e+01 +1.6369832139104246e+03 +1.0253598739985704e+05 -6.1706231809994439e+06 
+3.9000000000000021e+00 -1.7325519981624307e-01 +7.0647756929114022e-04 -6.6131364951049043e-02 -1.6712067693379190e+01 +1.6641059236809460e+03 +1.0205812395310345e+05 -6.2780970804612665e+06 
+4.0000000000000018e+00 -1.7325515172337605e-01 +7.0032956725984811e-04 -6.7850079494140916e-02 -1.6615863241235601e+01 +1.6877429930935825e+03 +1.0150818674191409e+05 -6.3683072608726416e+06 
+4.1000000000000014e+00 -1.7325510671239305e-01 +6.9399734107475841e-04 -6.9370527977380872e-02 -1.6509003844763427e+01 +1.7076284510679609e+03 +1.0088362931746517e+05 -6.4399743300623056e+06 
+4.2000000000000011e+00 -1.7325506482443689e-01 +6.8749668518605742e-04 -7.0689657285199631e-02 -1.6391759442076442e+01 +1.7237749858171103e+03 +1.0018641527204883e+05 -6.4933003912442811e+06 
+4.3000000000000007e+00 -1.7325502604163334e-01 +6.8085075105935435e-04 -7.1807865053162431e-02 -1.6264975302694602e+01 +1.7362963681111437e+03 +9.9422689838126404e+04 -6.5290953596538408e+06 
+4.4000000000000004e+00 -1.7325499034609518e-01 +6.7408289019624072e-04 -7.2725571697294988e-02 -1.6129508185725172e+01 +1.7453075782483963e+03 +9.8598681408190183e+04 -6.5481776010486698e+06 
+4.5000000000000000e+00 -1.7325495772000243e-01 +6.6721642532350969e-04 -7.3443188412137164e-02 -1.5986214436947739e+01 +1.7509234046175836e+03 +9.7720617777498774e+04 -6.5513645644173073e+06 
+4.5999999999999996e+00 -1.7325492814559412e-01 +6.6027464978950657e-04 -7.3961118312242419e-02 -1.5835950001361971e+01 +1.7532584658749663e+03 +9.6794726350824189e+04 -6.5394728916898100e+06 
+4.6999999999999993e+00 -1.7325490160519225e-01 +6.5328082727220593e-04 -7.4279753086473582e-02 -1.5679570432392158e+01 +1.7524271456167392e+03 +9.5827234293022571e+04 -6.5133181087396527e+06 
+4.7999999999999989e+00 -1.7325487808118009e-01 +6.4625818882114072e-04 -7.4399475772196799e-02 -1.5517930833176409e+01 +1.7485436444279776e+03 +9.4824368315827785e+04 -6.4737148734934730e+06 
+4.8999999999999986e+00 -1.7325485755602851e-01 +6.3922993363713044e-04 -7.4320657351211544e-02 -1.5351885900864298e+01 +1.7417219152569055e+03 +9.3792355043614007e+04 -6.4214766746263308e+06 
+4.9999999999999982e+00 -1.7325484001228553e-01 +6.3221922560278564e-04 -7.4043657879611549e-02 -1.5182289850625807e+01 +1.7320756830053508e+03 +9.2737420691761479e+04 -6.3574159232066870e+06 
+5.0999999999999979e+00 -1.7325482543258980e-01 +6.2524919464031919e-04 -7.3568824833998722e-02 -1.5009996476973789e+01 +1.7197184134489314e+03 +9.1665791532774892e+04 -6.2823438107535597e+06 
+5.1999999999999975e+00 -1.7325481379967067e-01 +6.1834293327165887e-04 -7.2896492790970963e-02 -1.4835859080468133e+01 +1.7047633050630723e+03 +9.0583693594790355e+04 -6.1970702691584909e+06 
+5.2999999999999972e+00 -1.7325480509635588e-01 +6.1152349691016156e-04 -7.2026982624964653e-02 -1.4660730496346696e+01 +1.6873232746973783e+03 +8.9497352933583228e+04 -6.1024039094803883e+06 
+5.3999999999999968e+00 -1.7325479930557058e-01 +6.0481390181028275e-04 -7.0960601283467567e-02 -1.4485463058526868e+01 +1.6675109505072380e+03 +8.8412995538629737e+04 -5.9991519848565673e+06 
+5.4999999999999964e+00 -1.7325479641034258e-01 +5.9823712478601989e-04 -6.9697641205828914e-02 -1.4310908618279081e+01 +1.6454386618101666e+03 +8.7336847566138124e+04 -5.8881203493047124e+06 
+5.5999999999999961e+00 -1.7325479639381131e-01 +5.9181610079848122e-04 -6.8238379010781808e-02 -1.4137918494176921e+01 +1.6212184125908534e+03 +8.6275135153539246e+04 -5.7701133322305605e+06 
+5.6999999999999957e+00 -1.7325479923923265e-01 +5.8557372272146691e-04 -6.6583074795932756e-02 -1.3967343488921165e+01 +1.5949618673117534e+03 +8.5234084632647384e+04 -5.6459336732155234e+06 
+5.7999999999999954e+00 -1.7325480492997231e-01 +5.7953283934492376e-04 -6.4731972889594536e-02 -1.3800033856269474e+01 +1.5667803646049285e+03 +8.4219922457009510e+04 -5.5163825889747655e+06 
+5.8999999999999950e+00 -1.7325481344952051e-01 +5.7371625517681191e-04 -6.2685299914957512e-02 -1.3636839317319003e+01 +1.5367848798248212e+03 +8.3238875406354156e+04 -5.3822595987748643e+06 
+5.9999999999999947e+00 -1.7325482478180457e-01 +5.6814699287498259e-04 -6.0443194518204929e-02 -1.3478621330111650e+01 +1.5050836081556199e+03 +8.2297191484821436e+04 -5.2443531143598920e+06 
+6.0999999999999943e+00 -1.7325483884608925e-01 +5.6284782192162115e-04 -5.8009753022862841e-02 -1.3326506193216586e+01 +1.4717992904251082e+03 +8.1402221814314951e+04 -5.1034416583636412e+06 
+6.1999999999999940e+00 -1.7325485525087561e-01 +5.5781100460107979e-04 -5.5409333971023857e-02 -1.3180696380885879e+01 +1.4372427439519824e+03 +8.0555272880657387e+04 -4.9607565584363155e+06 
+6.2999999999999936e+00 -1.7325487350673502e-01 +5.5301005894009569e-04 -5.2672365344620095e-02 -1.3040439481591999e+01 +1.4017502418625470e+03 +7.9751394010680669e+04 -4.8174115311823348e+06 
+6.3999999999999932e+00 -1.7325489312413317e-01 +5.4841797625901681e-04 -4.9829229024532531e-02 -1.2904950550396745e+01 +1.3656547376935155e+03 +7.8985410553765993e+04 -4.6744972814953579e+06 
+6.4999999999999929e+00 -1.7325491361344075e-01 +5.4400784694500339e-04 -4.6910319474044837e-02 -1.2773446531569924e+01 +1.3292894311161347e+03 +7.8252155763467599e+04 -4.5331056663397932e+06 
+6.5999999999999925e+00 -1.7325493448492246e-01 +5.3975286466928767e-04 -4.3946045245300755e-02 -1.2645146338295978e+01 +1.2929877977753495e+03 +7.7546471118092275e+04 -4.3943298376097120e+06 
+6.6999999999999922e+00 -1.7325495524874673e-01 +5.3562633038335000e-04 -4.0966827729639360e-02 -1.2519270919975520e+01 +1.2570835661328927e+03 +7.6863206553577009e+04 -4.2592641326399315e+06 
+6.7999999999999918e+00 -1.7325497541496374e-01 +5.3160165770652003e-04 -3.8003103884189891e-02 -1.2395043376471387e+01 +1.2219107691524014e+03 +7.6197220986047221e+04 -4.1290043166939775e+06 
+6.8999999999999915e+00 -1.7325499449350779e-01 +5.2765237661161937e-04 -3.5085326112200936e-02 -1.2271689014283213e+01 +1.1878037437761484e+03 +7.5543382474711587e+04 -4.0046475833556075e+06 
+6.9999999999999911e+00 -1.7325501199420082e-01 +5.2375213830591018e-04 -3.2243961777609430e-02 -1.2148435447804703e+01 +1.1550971220235790e+03 +7.4896568673736037e+04 -3.8872925119905588e+06 
+7.0999999999999908e+00 -1.7325502742673912e-01 +5.1987471923366257e-04 -2.9509494993599297e-02 -1.2024512665919287e+01 +1.1241258659243338e+03 +7.4251667058822582e+04 -3.7780392334665866e+06 
+7.1999999999999904e+00 -1.7325504030068653e-01 +5.1599402549561623e-04 -2.6912427402050489e-02 -1.1899153115902022e+01 +1.0952252825866526e+03 +7.3603575267877284e+04 -3.6779895007528872e+06 
+7.2999999999999901e+00 -1.7325505012548231e-01 +5.1208409823190210e-04 -2.4483277374889204e-02 -1.1771591814977395e+01 +1.0687310107819878e+03 +7.2947201601650231e+04 -3.5882466285268371e+06 
+7.3999999999999897e+00 -1.7325505641041830e-01 +5.0811911756547202e-04 -2.2252582842469965e-02 -1.1641066416903527e+01 +1.0449790744292557e+03 +7.2277465254154420e+04 -3.5099157434768169e+06 
+7.4999999999999893e+00 -1.7325505866465291e-01 +5.0407340642206404e-04 -2.0250899634345662e-02 -1.1506817280162364e+01 +1.0243058527103431e+03 +7.1589296567560887e+04 -3.4441036459106649e+06 
+7.5999999999999890e+00 -1.7325505639719774e-01 +4.9992143547290412e-04 -1.8508803089092259e-02 -1.1368087562136875e+01 +1.0070481104320033e+03 +7.0877637419781182e+04 -3.3919189511765102e+06 
+7.6999999999999886e+00 -1.7325504911691011e-01 +4.9563782861641772e-04 -1.7056889270615543e-02 -1.1224123336750182e+01 +9.9354302328052427e+02 +7.0137441767748256e+04 -3.3544722127256901e+06 
+7.7999999999999883e+00 -1.7325503633249528e-01 +4.9119736520420463e-04 -1.5925774478846303e-02 -1.1074173608804136e+01 +9.8412816805813441e+02 +6.9363675570908861e+04 -3.3328758735531084e+06 
+7.8999999999999879e+00 -1.7325501755250258e-01 +4.8657498677974036e-04 -1.5146096014347788e-02 -1.0917490469737611e+01 +9.7914153902157580e+02 +6.8551317559721661e+04 -3.3282443460539603e+06 
+7.9999999999999876e+00 -1.7325499228522259e-01 +4.8174563712850995e-04 -1.4748544188654643e-02 -1.0753319068016138e+01 +9.7892340754941586e+02 +6.7695385431222327e+04 -3.3416981906246529e+06 
+8.0999999999999872e+00 -1.7325496019996681e-01 +4.7668363366847510e-04 -1.4753579955405592e-02 -1.0580686357348496e+01 +9.8369121669778031e+02 +6.6790006773551460e+04 -3.3738850130191986e+06 
+8.1999999999999869e+00 -1.7325492164364273e-01 +4.7137705427818485e-04 -1.5137486709305788e-02 -1.0399295914483158e+01 +9.9308180555919046e+02 +6.5833810171663456e+04 -3.4232650587058058e+06 
+8.2999999999999865e+00 -1.7325487716691151e-01 +4.6582499330905235e-04 -1.5861990766322959e-02 -1.0209765676319801e+01 +1.0065804359756822e+03 +6.4831290297394968e+04 -3.4878626181612904e+06 
+8.3999999999999861e+00 -1.7325482732083916e-01 +4.6002728451842418e-04 -1.6888830852553185e-02 -1.0012768789270220e+01 +1.0236775529040574e+03 +6.3787260668681040e+04 -3.5657353603616161e+06 
+8.4999999999999858e+00 -1.7325477265651096e-01 +4.5398360889189674e-04 -1.8179735682809006e-02 -9.8089747278070991e+00 +1.0438634145145729e+03 +6.2706516015705187e+04 -3.6549402198100691e+06 
+8.5999999999999854e+00 -1.7325471372502707e-01 +4.4769349128207176e-04 -1.9696424207233165e-02 -9.5990492256448938e+00 +1.0666280961313944e+03 +6.1593831972854423e+04 -3.7535334171751677e+06 
+8.6999999999999851e+00 -1.7325465107751170e-01 +4.4115629338472927e-04 -2.1400604407858147e-02 -9.3836541036081389e+00 +1.0914614690600351e+03 +6.0453964182005635e+04 -3.8595703681645575e+06 
+8.7999999999999847e+00 -1.7325458526510287e-01 +4.3437120959261320e-04 -2.3253974196819072e-02 -9.1634471785141063e+00 +1.1178532165391505e+03 +5.9291647855440671e+04 -3.9711057599836388e+06 
+8.8999999999999844e+00 -1.7325451683896564e-01 +4.2733726175311909e-04 -2.5218219585735318e-02 -8.9390821408975025e+00 +1.1452927994797874e+03 +5.8111597164003746e+04 -4.0861933953185370e+06 
+8.9999999999999840e+00 -1.7325444635028084e-01 +4.2005329231146777e-04 -2.7255015749204310e-02 -8.7112083857884688e+00 +1.1732694759479768e+03 +5.6918504350759067e+04 -4.2028862864041794e+06 
+9.0999999999999837e+00 -1.7325437435025456e-01 +4.1251796071484632e-04 -2.9326025745676693e-02 -8.4804709405684964e+00 +1.2012722781468540e+03 +5.5717039413128579e+04 -4.3192365542299282e+06 
+9.1999999999999833e+00 -1.7325430139010864e-01 +4.0472973749326507e-04 -3.1392901345879333e-02 -8.2475103197538626e+00 +1.2287900268581466e+03 +5.4511849349298216e+04 -4.4332954971522139e+06 
+9.2999999999999829e+00 -1.7325422802109769e-01 +3.9668689839633025e-04 -3.3417280694572685e-02 -8.0129623883857661e+00 +1.2553112878689594e+03 +5.3307557470906344e+04 -4.5431133918776773e+06 
+9.3999999999999826e+00 -1.7325415479449438e-01 +3.8838752008328722e-04 -3.5360789941206602e-02 -7.7774582636851939e+00 +1.2803244029245939e+03 +5.2108762919395143e+04 -4.6467396435992373e+06 
+9.4999999999999822e+00 -1.7325408226159070e-01 +3.7982947391130369e-04 -3.7185042708172460e-02 -7.5416241677500047e+00 +1.3033174785388169e+03 +5.0920039917224836e+04 -4.7422227347139651e+06 
+9.5999999999999819e+00 -1.7325401097371168e-01 +3.7101042069495800e-04 -3.8851638338661038e-02 -7.3060813031799290e+00 +1.3237783545326567e+03 +4.9745937136159635e+04 -4.8276100848540431e+06 
+9.6999999999999815e+00 -1.7325394148220330e-01 +3.6192780648734160e-04 -4.0322162900382819e-02 -7.0714457617017574e+00 +1.3411946209691762e+03 +4.8590977266347683e+04 -4.9009481298396597e+06 
+9.7999999999999812e+00 -1.7325387433843206e-01 +3.5257885560213936e-04 -4.1558189221781804e-02 -6.8383283511566955e+00 +1.3550536205607655e+03 +4.7459656108737552e+04 -4.9602823416976016e+06 
+9.8999999999999808e+00 -1.7325381009379620e-01 +3.4296056631010283e-04 -4.2521275104554807e-02 -6.6073345007896345e+00 +1.3648424135986404e+03 +4.6356442123575485e+04 -5.0036570640267227e+06 
+9.9999999999999805e+00 -1.7325374929745327e-01 +3.3306947505747293e-04 -4.3173308421442576e-02 -6.3790786602845859e+00 +1.3700521023010911e+03 +4.5285895392773440e+04 -5.0291297573913839e+06 
+1.0099999999999980e+01 -1.7325369234038057e-01 +3.2290663824231450e-04 -4.3488369690515997e-02 -6.1545252461436277e+00 +1.3703427577924797e+03 +4.4254982917611793e+04 -5.0354022031503133e+06 
