# field on trajectory
# s[mm] rx[mm] ry[mm] rz[mm] bx[T] by[T] bz[T]
0.0000000000000000e+00 +4.6467000000000001e+00 +0.0000000000000000e+00 +0.0000000000000000e+00 +1.4170771399080743e-02 -2.6004083570763936e-01 +1.8010192486706603e-03
-1.0000000000000001e-01 +4.6466974013604379e+00 +0.0000000000000000e+00 -9.9999999954980490e-02 +1.4170699411313768e-02 -2.6004084323339893e-01 +1.8010410667556639e-03
-2.0000000000000001e-01 +4.6466896054416669e+00 +0.0000000000000000e+00 -1.9999999963984386e-01 +1.4170625763829364e-02 -2.6004084838471136e-01 +1.8010607350968529e-03
-3.0000000000000004e-01 +4.6466766122436045e+00 +0.0000000000000000e+00 -2.9999999878447298e-01 +1.4170551086940639e-02 -2.6004085161266383e-01 +1.8010784277178846e-03
-4.0000000000000002e-01 +4.6466584217662206e+00 +0.0000000000000000e+00 -3.9999999711875078e-01 +1.4170476011006570e-02 -2.6004085336832389e-01 +1.8010943186201013e-03
-5.0000000000000000e-01 +4.6466350340095284e+00 +0.0000000000000000e+00 -4.9999999437256004e-01 +1.4170401166425369e-02 -2.6004085410274713e-01 +1.8011085817843143e-03
-5.9999999999999998e-01 +4.6466064489735750e+00 +0.0000000000000000e+00 -5.9999999027578366e-01 +1.4170327183627795e-02 -2.6004085426698687e-01 +1.8011213911726018e-03
-6.9999999999999996e-01 +4.6465726666584342e+00 +0.0000000000000000e+00 -6.9999998455830448e-01 +1.4170254693070514e-02 -2.6004085431210217e-01 +1.8011329207300922e-03
-7.9999999999999993e-01 +4.6465336870641956e+00 +0.0000000000000000e+00 -7.9999997695000546e-01 +1.4170184325229467e-02 -2.6004085468916771e-01 +1.8011433443867603e-03
-8.9999999999999991e-01 +4.6464895101909560e+00 +0.0000000000000000e+00 -8.9999996718076947e-01 +1.4170116710593161e-02 -2.6004085584928177e-01 +1.8011528360592154e-03
-9.9999999999999989e-01 +4.6464401360388115e+00 +0.0000000000000000e+00 -9.9999995498047933e-01 +1.4170052479656052e-02 -2.6004085824357570e-01 +1.8011615696524941e-03
-1.0999999999999999e+00 +4.6463855646078462e+00 +0.0000000000000000e+00 -1.0999999400790179e+00 +1.4169992262911886e-02 -2.6004086232322293e-01 +1.8011697190618496e-03
-1.2000000000000000e+00 +4.6463257958981252e+00 +0.0000000000000000e+00 -1.1999999222062681e+00 +1.4169936690847033e-02 -2.6004086853944675e-01 +1.8011774581745408e-03
-1.3000000000000000e+00 +4.6462608299096848e+00 +0.0000000000000000e+00 -1.2999999010921126e+00 +1.4169886393933823e-02 -2.6004087734353037e-01 +1.8011849608716229e-03
-1.4000000000000001e+00 +4.6461906666425241e+00 +0.0000000000000000e+00 -1.3999998764664343e+00 +1.4169842002623905e-02 -2.6004088918682550e-01 +1.8011924010297329e-03
-1.5000000000000002e+00 +4.6461153060965952e+00 +0.0000000000000000e+00 -1.4999998480591159e+00 +1.4169804147341576e-02 -2.6004090452076067e-01 +1.8011999525228786e-03
-1.6000000000000003e+00 +4.6460347482717941e+00 +0.0000000000000000e+00 -1.5999998156000401e+00 +1.4169773458477149e-02 -2.6004092379685084e-01 +1.8012077892242248e-03
-1.7000000000000004e+00 +4.6459489931679530e+00 +0.0000000000000000e+00 -1.6999997788190893e+00 +1.4169750566380250e-02 -2.6004094746670586e-01 +1.8012160850078773e-03
-1.8000000000000005e+00 +4.6458580407848293e+00 +0.0000000000000000e+00 -1.7999997374461458e+00 +1.4169736101353209e-02 -2.6004097598203901e-01 +1.8012250137506636e-03
-1.9000000000000006e+00 +4.6457618911220981e+00 +0.0000000000000000e+00 -1.8999996912110921e+00 +1.4169730693644366e-02 -2.6004100979467693e-01 +1.8012347493339149e-03
-2.0000000000000004e+00 +4.6456605441793419e+00 +0.0000000000000000e+00 -1.9999996398438100e+00 +1.4169734973441428e-02 -2.6004104935656702e-01 +1.8012454656452454e-03
-2.1000000000000005e+00 +4.6455539999560438e+00 +0.0000000000000000e+00 -2.0999995830741813e+00 +1.4169749297820501e-02 -2.6004109491509653e-01 +1.8012573005643342e-03
-2.2000000000000006e+00 +4.6454422584515820e+00 +0.0000000000000000e+00 -2.1999995206320877e+00 +1.4169772931606074e-02 -2.6004114589895466e-01 +1.8012702479161730e-03
-2.3000000000000007e+00 +4.6453253196652415e+00 +0.0000000000000000e+00 -2.2999994522474108e+00 +1.4169804866524626e-02 -2.6004120153209775e-01 +1.8012842655235446e-03
-2.4000000000000008e+00 +4.6452031835962266e+00 +0.0000000000000000e+00 -2.3999993776500315e+00 +1.4169844094254704e-02 -2.6004126103841663e-01 +1.8012993112261691e-03
-2.5000000000000009e+00 +4.6450758502436793e+00 +0.0000000000000000e+00 -2.4999992965698303e+00 +1.4169889606424180e-02 -2.6004132364172300e-01 +1.8013153428828341e-03
-2.6000000000000010e+00 +4.6449433196066936e+00 +0.0000000000000000e+00 -2.5999992087366883e+00 +1.4169940394607531e-02 -2.6004138856573605e-01 +1.8013323183735316e-03
-2.7000000000000011e+00 +4.6448055916843316e+00 +0.0000000000000000e+00 -2.6999991138804855e+00 +1.4169995450323073e-02 -2.6004145503406956e-01 +1.8013501956015915e-03
-2.8000000000000012e+00 +4.6446626664756376e+00 +0.0000000000000000e+00 -2.7999990117311020e+00 +1.4170053765030223e-02 -2.6004152227021787e-01 +1.8013689324958134e-03
-2.9000000000000012e+00 +4.6445145439796560e+00 +0.0000000000000000e+00 -2.8999989020184178e+00 +1.4170114330126790e-02 -2.6004158949754280e-01 +1.8013884870126068e-03
-3.0000000000000013e+00 +4.6443612241954435e+00 +0.0000000000000000e+00 -2.9999987844723126e+00 +1.4170176136946202e-02 -2.6004165593926071e-01 +1.8014088171381206e-03
-3.1000000000000014e+00 +4.6442027071220888e+00 +0.0000000000000000e+00 -3.0999986588226660e+00 +1.4170238176754783e-02 -2.6004172081842836e-01 +1.8014298808903843e-03
-3.2000000000000015e+00 +4.6440389927587233e+00 +0.0000000000000000e+00 -3.1999985247993572e+00 +1.4170299440749008e-02 -2.6004178335793043e-01 +1.8014516363214412e-03
-3.3000000000000016e+00 +4.6438700811045415e+00 +0.0000000000000000e+00 -3.2999983821322658e+00 +1.4170358920052775e-02 -2.6004184278046527e-01 +1.8014740415194866e-03
-3.4000000000000017e+00 +4.6436959721588131e+00 +0.0000000000000000e+00 -3.3999982305512710e+00 +1.4170415605714672e-02 -2.6004189830853236e-01 +1.8014970546110045e-03
-3.5000000000000018e+00 +4.6435166659208997e+00 +0.0000000000000000e+00 -3.4999980697862521e+00 +1.4170468488705222e-02 -2.6004194916441881e-01 +1.8015206337629092e-03
-3.6000000000000019e+00 +4.6433321623902710e+00 +0.0000000000000000e+00 -3.5999978995670880e+00 +1.4170516559914161e-02 -2.6004199457018590e-01 +1.8015447371846794e-03
-3.7000000000000020e+00 +4.6431424615665193e+00 +0.0000000000000000e+00 -3.6999977196236586e+00 +1.4170558810147692e-02 -2.6004203374765594e-01 +1.8015693231305033e-03
-3.8000000000000020e+00 +4.6429475634493746e+00 +0.0000000000000000e+00 -3.7999975296858430e+00 +1.4170594230125778e-02 -2.6004206591839879e-01 +1.8015943499014170e-03
-3.9000000000000021e+00 +4.6427474680387224e+00 +0.0000000000000000e+00 -3.8999973294835208e+00 +1.4170621810479371e-02 -2.6004209030371905e-01 +1.8016197758474448e-03
-4.0000000000000018e+00 +4.6425421753346168e+00 +0.0000000000000000e+00 -3.9999971187465722e+00 +1.4170640541747714e-02 -2.6004210612464246e-01 +1.8016455593697473e-03
-4.1000000000000014e+00 +4.6423316853372967e+00 +0.0000000000000000e+00 -4.0999968972048766e+00 +1.4170649673521989e-02 -2.6004211287784634e-01 +1.8016716798073512e-03
-4.2000000000000011e+00 +4.6421159980471947e+00 +0.0000000000000000e+00 -4.1999966645883156e+00 +1.4170649492052175e-02 -2.6004211116369952e-01 +1.8016982000766536e-03
-4.3000000000000007e+00 +4.6418951134649262e+00 +0.0000000000000000e+00 -4.2999964206267700e+00 +1.4170640542908132e-02 -2.6004210185859783e-01 +1.8017252039728609e-03
-4.4000000000000004e+00 +4.6416690315912730e+00 +0.0000000000000000e+00 -4.3999961650501209e+00 +1.4170623371819733e-02 -2.6004208583901323e-01 +1.8017527752739514e-03
-4.5000000000000000e+00 +4.6414377524271639e+00 +0.0000000000000000e+00 -4.4999958975882492e+00 +1.4170598524688698e-02 -2.6004206398150242e-01 +1.8017809977385287e-03
-4.5999999999999996e+00 +4.6412012759736596e+00 +0.0000000000000000e+00 -4.5999956179710377e+00 +1.4170566547600473e-02 -2.6004203716271634e-01 +1.8018099551036810e-03
-4.6999999999999993e+00 +4.6409596022319324e+00 +0.0000000000000000e+00 -4.6999953259283691e+00 +1.4170527986836075e-02 -2.6004200625940899e-01 +1.8018397310828375e-03
-4.7999999999999989e+00 +4.6407127312032523e+00 +0.0000000000000000e+00 -4.7999950211901261e+00 +1.4170483388883971e-02 -2.6004197214844688e-01 +1.8018704093636217e-03
-4.8999999999999986e+00 +4.6404606628889660e+00 +0.0000000000000000e+00 -4.8999947034861915e+00 +1.4170433300451908e-02 -2.6004193570681822e-01 +1.8019020736057077e-03
-4.9999999999999982e+00 +4.6402033972904810e+00 +0.0000000000000000e+00 -4.9999943725464480e+00 +1.4170378268478780e-02 -2.6004189781164216e-01 +1.8019348074386711e-03
-5.0999999999999979e+00 +4.6399409344092488e+00 +0.0000000000000000e+00 -5.0999940281007801e+00 +1.4170318840146466e-02 -2.6004185934017793e-01 +1.8019686944598403e-03
-5.1999999999999975e+00 +4.6396732742467455e+00 +0.0000000000000000e+00 -5.1999936698790705e+00 +1.4170255562891696e-02 -2.6004182116983326e-01 +1.8020038182321471e-03
-5.2999999999999972e+00 +4.6394004168044551e+00 +0.0000000000000000e+00 -5.2999932976112039e+00 +1.4170188984417889e-02 -2.6004178417817475e-01 +1.8020402622819780e-03
-5.3999999999999968e+00 +4.6391223620838531e+00 +0.0000000000000000e+00 -5.3999929110270637e+00 +1.4170119652706986e-02 -2.6004174924293544e-01 +1.8020781100970171e-03
-5.4999999999999964e+00 +4.6388391100863871e+00 +0.0000000000000000e+00 -5.4999925098565337e+00 +1.4170048116031311e-02 -2.6004171724202529e-01 +1.8021174451240982e-03
-5.5999999999999961e+00 +4.6385506608134603e+00 +0.0000000000000000e+00 -5.5999920938294983e+00 +1.4169974922965385e-02 -2.6004168905353919e-01 +1.8021583507670455e-03
-5.6999999999999957e+00 +4.6382570142664141e+00 +0.0000000000000000e+00 -5.6999916626758411e+00 +1.4169900622397801e-02 -2.6004166555576641e-01 +1.8022009103845196e-03
-5.7999999999999954e+00 +4.6379581704465096e+00 +0.0000000000000000e+00 -5.7999912161254459e+00 +1.4169825763543009e-02 -2.6004164762719978e-01 +1.8022452072878571e-03
-5.8999999999999950e+00 +4.6376541293549112e+00 +0.0000000000000000e+00 -5.8999907539081962e+00 +1.4169750895953195e-02 -2.6004163614654369e-01 +1.8022913247389156e-03
-5.9999999999999947e+00 +4.6373448909926678e+00 +0.0000000000000000e+00 -5.9999902757539747e+00 +1.4169676569530075e-02 -2.6004163199272440e-01 +1.8023393459479086e-03
-6.0999999999999943e+00 +4.6370304553606960e+00 +0.0000000000000000e+00 -6.0999897813926642e+00 +1.4169603304671390e-02 -2.6004163582519213e-01 +1.8023893025952899e-03
-6.1999999999999940e+00 +4.6367108224597695e+00 +0.0000000000000000e+00 -6.1999892705541475e+00 +1.4169531502461636e-02 -2.6004164742451286e-01 +1.8024410203556066e-03
-6.2999999999999936e+00 +4.6363859922905206e+00 +0.0000000000000000e+00 -6.2999887429683064e+00 +1.4169461533953855e-02 -2.6004166635154108e-01 +1.8024942733784364e-03
-6.3999999999999932e+00 +4.6360559648534494e+00 +0.0000000000000000e+00 -6.3999881983650226e+00 +1.4169393769994683e-02 -2.6004169216724549e-01 +1.8025488357973642e-03
-6.4999999999999929e+00 +4.6357207401489324e+00 +0.0000000000000000e+00 -6.4999876364741764e+00 +1.4169328581213040e-02 -2.6004172443271412e-01 +1.8026044817295590e-03
-6.5999999999999925e+00 +4.6353803181772308e+00 +0.0000000000000000e+00 -6.5999870570256487e+00 +1.4169266338008801e-02 -2.6004176270915647e-01 +1.8026609852753494e-03
-6.6999999999999922e+00 +4.6350346989384992e+00 +0.0000000000000000e+00 -6.6999864597493195e+00 +1.4169207410541533e-02 -2.6004180655790882e-01 +1.8027181205178110e-03
-6.7999999999999918e+00 +4.6346838824327961e+00 +0.0000000000000000e+00 -6.7999858443750680e+00 +1.4169152168719170e-02 -2.6004185554043652e-01 +1.8027756615223425e-03
-6.8999999999999915e+00 +4.6343278686600904e+00 +0.0000000000000000e+00 -6.8999852106327735e+00 +1.4169100982186721e-02 -2.6004190921833920e-01 +1.8028333823362573e-03
-6.9999999999999911e+00 +4.6339666576202729e+00 +0.0000000000000000e+00 -6.9999845582523141e+00 +1.4169054220315017e-02 -2.6004196715335320e-01 +1.8028910569883711e-03
-7.0999999999999908e+00 +4.6336002493131607e+00 +0.0000000000000000e+00 -7.0999838869635683e+00 +1.4169012252189373e-02 -2.6004202890735628e-01 +1.8029484594885936e-03
-7.1999999999999904e+00 +4.6332286437385104e+00 +0.0000000000000000e+00 -7.1999831964964143e+00 +1.4168975446598373e-02 -2.6004209404237111e-01 +1.8030053638275246e-03
-7.2999999999999901e+00 +4.6328518408960253e+00 +0.0000000000000000e+00 -7.2999824865807286e+00 +1.4168944172022557e-02 -2.6004216212056913e-01 +1.8030615439760499e-03
-7.3999999999999897e+00 +4.6324698407853626e+00 +0.0000000000000000e+00 -7.3999817569463886e+00 +1.4168918796623169e-02 -2.6004223270427390e-01 +1.8031167738849433e-03
-7.4999999999999893e+00 +4.6320826434061448e+00 +0.0000000000000000e+00 -7.4999810073232718e+00 +1.4168899688230891e-02 -2.6004230535596612e-01 +1.8031708274844696e-03
-7.5999999999999890e+00 +4.6316902487579661e+00 +0.0000000000000000e+00 -7.5999802374412537e+00 +1.4168887214334600e-02 -2.6004237963828575e-01 +1.8032234786839933e-03
-7.6999999999999886e+00 +4.6312926568404027e+00 +0.0000000000000000e+00 -7.6999794470302101e+00 +1.4168881742070115e-02 -2.6004245511403762e-01 +1.8032745013715880e-03
-7.7999999999999883e+00 +4.6308898676530212e+00 +0.0000000000000000e+00 -7.7999786358200174e+00 +1.4168883638208953e-02 -2.6004253134619404e-01 +1.8033236694136479e-03
-7.8999999999999879e+00 +4.6304818811953865e+00 +0.0000000000000000e+00 -7.8999778035405512e+00 +1.4168893269147080e-02 -2.6004260789789913e-01 +1.8033707566545098e-03
-7.9999999999999876e+00 +4.6300686974670704e+00 +0.0000000000000000e+00 -7.9999769499216864e+00 +1.4168911000893703e-02 -2.6004268433247280e-01 +1.8034155369160696e-03
-8.0999999999999872e+00 +4.6296503164676635e+00 +0.0000000000000000e+00 -8.0999760746932985e+00 +1.4168936998582383e-02 -2.6004276026286222e-01 +1.8034578526935079e-03
-8.1999999999999869e+00 +4.6292267381967775e+00 +0.0000000000000000e+00 -8.1999751775852623e+00 +1.4168970624626720e-02 -2.6004283550000523e-01 +1.8034978214394955e-03
-8.2999999999999865e+00 +4.6287979626540539e+00 +0.0000000000000000e+00 -8.2999742583274525e+00 +1.4169011040696252e-02 -2.6004290990421097e-01 +1.8035356293915953e-03
-8.3999999999999861e+00 +4.6283639898391638e+00 +0.0000000000000000e+00 -8.3999733166497439e+00 +1.4169057408512355e-02 -2.6004298333560588e-01 +1.8035714627827651e-03
-8.4999999999999858e+00 +4.6279248197518124e+00 +0.0000000000000000e+00 -8.4999723522820112e+00 +1.4169108889851062e-02 -2.6004305565412783e-01 +1.8036055078415093e-03
-8.5999999999999854e+00 +4.6274804523917403e+00 +0.0000000000000000e+00 -8.5999713649541292e+00 +1.4169164646545867e-02 -2.6004312671951796e-01 +1.8036379507920363e-03
-8.6999999999999851e+00 +4.6270308877587283e+00 +0.0000000000000000e+00 -8.6999703543959725e+00 +1.4169223840490519e-02 -2.6004319639131485e-01 +1.8036689778544094e-03
-8.7999999999999847e+00 +4.6265761258525977e+00 +0.0000000000000000e+00 -8.7999693203374143e+00 +1.4169285633641809e-02 -2.6004326452884557e-01 +1.8036987752446977e-03
-8.8999999999999844e+00 +4.6261161666732162e+00 +0.0000000000000000e+00 -8.8999682625083310e+00 +1.4169349188022375e-02 -2.6004333099122073e-01 +1.8037275291751349e-03
-8.9999999999999840e+00 +4.6256510102204977e+00 +0.0000000000000000e+00 -8.9999671806385955e+00 +1.4169413665723454e-02 -2.6004339563732554e-01 +1.8037554258542655e-03
-9.0999999999999837e+00 +4.6251806564944067e+00 +0.0000000000000000e+00 -9.0999660744580844e+00 +1.4169478228907647e-02 -2.6004345832581366e-01 +1.8037826514870992e-03
-9.1999999999999833e+00 +4.6247051054949617e+00 +0.0000000000000000e+00 -9.1999649436966706e+00 +1.4169542039811710e-02 -2.6004351891510014e-01 +1.8038093922752648e-03
-9.2999999999999829e+00 +4.6242243572222366e+00 +0.0000000000000000e+00 -9.2999637880842290e+00 +1.4169604260749275e-02 -2.6004357726335353e-01 +1.8038358344171599e-03
-9.3999999999999826e+00 +4.6237384116763636e+00 +0.0000000000000000e+00 -9.3999626073506359e+00 +1.4169664054113620e-02 -2.6004363322848995e-01 +1.8038621641081019e-03
-9.4999999999999822e+00 +4.6232472688575372e+00 +0.0000000000000000e+00 -9.4999614012257645e+00 +1.4169720582380372e-02 -2.6004368666816507e-01 +1.8038885675404803e-03
-9.5999999999999819e+00 +4.6227509287660160e+00 +0.0000000000000000e+00 -9.5999601694394912e+00 +1.4169773008110268e-02 -2.6004373743976772e-01 +1.8039152309039064e-03
-9.6999999999999815e+00 +4.6222493914021268e+00 +0.0000000000000000e+00 -9.6999589117216907e+00 +1.4169820493951855e-02 -2.6004378540041229e-01 +1.8039423403853646e-03
-9.7999999999999812e+00 +4.6217426567662656e+00 +0.0000000000000000e+00 -9.7999576278022378e+00 +1.4169862202644214e-02 -2.6004383040693207e-01 +1.8039700821693629e-03
-9.8999999999999808e+00 +4.6212307248589015e+00 +0.0000000000000000e+00 -9.8999563174110090e+00 +1.4169897297019625e-02 -2.6004387231587206e-01 +1.8039986424380806e-03
-9.9999999999999805e+00 +4.6207135956805807e+00 +0.0000000000000000e+00 -9.9999549802778791e+00 +1.4169924940006306e-02 -2.6004391098348195e-01 +1.8040282073715195e-03
-1.0099999999999980e+01 +4.6201912692319276e+00 +0.0000000000000000e+00 -1.0099953616132725e+01 +1.4169944505911429e-02 -2.6004394631002969e-01 +1.8040589054043566e-03
-1.0199999999999980e+01 +4.6196637455136464e+00 +0.0000000000000000e+00 -1.0199952224705422e+01 +1.4169956215437310e-02 -2.6004397837309118e-01 +1.8040906336782251e-03
-1.0299999999999979e+01 +4.6191310245265216e+00 +0.0000000000000000e+00 -1.0299950805725850e+01 +1.4169960501326307e-02 -2.6004400729463284e-01 +1.8041232314173583e-03
-1.0399999999999979e+01 +4.6185931062714136e+00 +0.0000000000000000e+00 -1.0399949358923882e+01 +1.4169957796521667e-02 -2.6004403319659503e-01 +1.8041565378263756e-03
-1.0499999999999979e+01 +4.6180499907492578e+00 +0.0000000000000000e+00 -1.0499947884029398e+01 +1.4169948534172735e-02 -2.6004405620089194e-01 +1.8041903920900139e-03
-1.0599999999999978e+01 +4.6175016779610614e+00 +0.0000000000000000e+00 -1.0599946380772275e+01 +1.4169933147640194e-02 -2.6004407642941124e-01 +1.8042246333728599e-03
-1.0699999999999978e+01 +4.6169481679079007e+00 +0.0000000000000000e+00 -1.0699944848882392e+01 +1.4169912070501342e-02 -2.6004409400401518e-01 +1.8042591008190902e-03
-1.0799999999999978e+01 +4.6163894605909190e+00 +0.0000000000000000e+00 -1.0799943288089626e+01 +1.4169885736555312e-02 -2.6004410904653935e-01 +1.8042936335522031e-03
-1.0899999999999977e+01 +4.6158255560113259e+00 +0.0000000000000000e+00 -1.0899941698123856e+01 +1.4169854579828382e-02 -2.6004412167879359e-01 +1.8043280706747573e-03
-1.0999999999999977e+01 +4.6152564541703907e+00 +0.0000000000000000e+00 -1.0999940078714962e+01 +1.4169819034579223e-02 -2.6004413202256188e-01 +1.8043622512681080e-03
-1.1099999999999977e+01 +4.6146821550694446e+00 +0.0000000000000000e+00 -1.1099938429592822e+01 +1.4169779535304187e-02 -2.6004414019960187e-01 +1.8043960143921468e-03
-1.1199999999999976e+01 +4.6141026587098750e+00 +0.0000000000000000e+00 -1.1199936750487316e+01 +1.4169736516742639e-02 -2.6004414633164574e-01 +1.8044291990850388e-03
-1.1299999999999976e+01 +4.6135179650931244e+00 +0.0000000000000000e+00 -1.1299935041128323e+01 +1.4169690413882215e-02 -2.6004415054039959e-01 +1.8044616443629649e-03
-1.1399999999999975e+01 +4.6129280742206875e+00 +0.0000000000000000e+00 -1.1399933301245726e+01 +1.4169641661964187e-02 -2.6004415294754368e-01 +1.8044931892198589e-03
-1.1499999999999975e+01 +4.6123329860941107e+00 +0.0000000000000000e+00 -1.1499931530569402e+01 +1.4169590696488755e-02 -2.6004415367473288e-01 +1.8045236726271525e-03
-1.1599999999999975e+01 +4.6117327007149855e+00 +0.0000000000000000e+00 -1.1599929728829233e+01 +1.4169537953220396e-02 -2.6004415284359622e-01 +1.8045529335335142e-03
-1.1699999999999974e+01 +4.6111272180849499e+00 +0.0000000000000000e+00 -1.1699927895755101e+01 +1.4169483868193236e-02 -2.6004415057573743e-01 +1.8045808108645965e-03
