# multipoles
# s[mm] polynom_b[n=0][T/m^n] polynom_b[n=1][T/m^n] polynom_b[n=2][T/m^n] polynom_b[n=3][T/m^n] polynom_b[n=4][T/m^n] polynom_b[n=5][T/m^n] polynom_b[n=6][T/m^n] 
+0.0000000000000000e+00 -2.6004184842536804e-01 +9.0675035718435827e-04 -2.6675619863252842e-01 +1.4616248897901468e+01 +4.4413915728958045e+03 -4.6331764471907794e+04 -1.6376556404824700e+07 
-1.0000000000000001e-01 -2.6004185620249221e-01 +9.0522866394456111e-04 -2.6711816580925823e-01 +1.4667305754140047e+01 +4.4373797677033317e+03 -4.6643064595356256e+04 -1.6347930947482092e+07 
-2.0000000000000001e-01 -2.6004186188243616e-01 +9.0340985091060075e-04 -2.6739504812574738e-01 +1.4738386403304336e+01 +4.4315602967377026e+03 -4.7075481944391839e+04 -1.6311830034572765e+07 
-3.0000000000000004e-01 -2.6004186586156819e-01 +9.0137039229327097e-04 -2.6757883774042973e-01 +1.4826654410562359e+01 +4.4239169540112980e+03 -4.7613343770401174e+04 -1.6268317140266785e+07 
-4.0000000000000002e-01 -2.6004186853623013e-01 +8.9918675807672374e-04 -2.6766153168703599e-01 +1.4929273494421501e+01 +4.4144336280646048e+03 -4.8240978184966698e+04 -1.6217456181598185e+07 
-5.0000000000000000e-01 -2.6004187030276682e-01 +8.9693541135509763e-04 -2.6763512784090943e-01 +1.5043407582122114e+01 +4.4030942260408738e+03 -4.8942714437797607e+04 -1.6159311162963919e+07 
-5.9999999999999998e-01 -2.6004187155750724e-01 +8.9469280756676540e-04 -2.6749162745976174e-01 +1.5166220814653590e+01 +4.3898827237036749e+03 -4.9702882915932802e+04 -1.6093946418499867e+07 
-6.9999999999999996e-01 -2.6004187269680212e-01 +8.9253539519796666e-04 -2.6722303014845639e-01 +1.5294877500828090e+01 +4.3747830710126036e+03 -5.0505814825215275e+04 -1.6021426170498174e+07 
-7.9999999999999993e-01 -2.6004187411699758e-01 +8.9053961298144542e-04 -2.6682133703246991e-01 +1.5426542179764235e+01 +4.3577792528663895e+03 -5.1335842513481926e+04 -1.5941814819977215e+07 
-8.9999999999999991e-01 -2.6004187621446706e-01 +8.8878189091622540e-04 -2.6627854688767960e-01 +1.5558379568362536e+01 +4.3388552182850162e+03 -5.2177299126796184e+04 -1.5855176619203487e+07 
-9.9999999999999989e-01 -2.6004187938561185e-01 +8.8733864936560403e-04 -2.6558665567251610e-01 +1.5687554567980609e+01 +4.3179948717305306e+03 -5.3014518605610843e+04 -1.5761575634292167e+07 
-1.0999999999999999e+00 -2.6004188402686718e-01 +8.8628629653895064e-04 -2.6473765582717707e-01 +1.5811232315933180e+01 +4.2951820612121510e+03 -5.3831835942751313e+04 -1.5661075693179328e+07 
-1.2000000000000000e+00 -2.6004189053470034e-01 +8.8570122943787064e-04 -2.6372353628725853e-01 +1.5926578137216040e+01 +4.2704005796400206e+03 -5.4613586864368393e+04 -1.5553740396760339e+07 
-1.3000000000000000e+00 -2.6004189930564170e-01 +8.8565983265272163e-04 -2.6253627861246875e-01 +1.6030757556639067e+01 +4.2436340934093550e+03 -5.5344107853280570e+04 -1.5439632788563667e+07 
-1.4000000000000001e+00 -2.6004191073626060e-01 +8.8623847665877476e-04 -2.6116785974994894e-01 +1.6120936330151320e+01 +4.2148661946941274e+03 -5.6007736298361699e+04 -1.5318815602750177e+07 
-1.5000000000000002e+00 -2.6004192522319908e-01 +8.8751351882540347e-04 -2.5961024779259129e-01 +1.6194280388500619e+01 +4.1840803235495541e+03 -5.6588810109235506e+04 -1.5191350904671976e+07 
-1.6000000000000003e+00 -2.6004194316316959e-01 +8.8956130077786038e-04 -2.5785540205882723e-01 +1.6247955901175114e+01 +4.1512597696592456e+03 -5.7071668070126769e+04 -1.5057300101231469e+07 
-1.7000000000000004e+00 -2.6004196495295306e-01 +8.9245814944250855e-04 -2.5589527343244090e-01 +1.6279129219236854e+01 +4.1163876810877009e+03 -5.7440649453223690e+04 -1.4916723989629813e+07 
-1.8000000000000005e+00 -2.6004199098941694e-01 +8.9628037369710891e-04 -2.5372180161100311e-01 +1.6284966949721444e+01 +4.0794470112755298e+03 -5.7680094399753943e+04 -1.4769682506594678e+07 
-1.9000000000000006e+00 -2.6004202166952645e-01 +9.0110426641586529e-04 -2.5132691405826513e-01 +1.6262635882390367e+01 +4.0404205035875930e+03 -5.7774343478682851e+04 -1.4616234668742398e+07 
-2.0000000000000004e+00 -2.6004205739033992e-01 +9.0700610114054811e-04 -2.4870252604814208e-01 +1.6209303090934128e+01 +3.9992906940192156e+03 -5.7707738350982559e+04 -1.4456438599671220e+07 
-2.1000000000000005e+00 -2.6004209838949249e-01 +9.1403168658676015e-04 -2.4584821427491757e-01 +1.6123014358505106e+01 +3.9561324745850029e+03 -5.7469372429123214e+04 -1.4290705908671616e+07 
-2.2000000000000006e+00 -2.6004214423431371e-01 +9.2209599495558857e-04 -2.4279481861579402e-01 +1.6005612493777278e+01 +3.9113670989094308e+03 -5.7068468641360378e+04 -1.4120695602963729e+07 
-2.3000000000000007e+00 -2.6004219431626963e-01 +9.3107841541048336e-04 -2.3958108915942447e-01 +1.5859986391286650e+01 +3.8654944858625267e+03 -5.6519690672843557e+04 -1.3948328225879513e+07 
-2.4000000000000008e+00 -2.6004224802679876e-01 +9.4085835022859182e-04 -2.3624577748114470e-01 +1.5689024662178070e+01 +3.8190145653758368e+03 -5.5837700198384126e+04 -1.3775524386772582e+07 
-2.5000000000000009e+00 -2.6004230475728873e-01 +9.5131522260038105e-04 -2.3282763978699325e-01 +1.5495615380355678e+01 +3.7724273468990359e+03 -5.5037155992182961e+04 -1.3604205056633867e+07 
-2.6000000000000010e+00 -2.6004236389907837e-01 +9.6232847945577264e-04 -2.2936543654595420e-01 +1.5282646027509431e+01 +3.7262329121942066e+03 -5.4132713677383414e+04 -1.3436291534014348e+07 
-2.7000000000000011e+00 -2.6004242484343509e-01 +9.7377759355728741e-04 -2.2589793497054136e-01 +1.5053003451208630e+01 +3.6809314579079701e+03 -5.3139025533797525e+04 -1.3273705633933872e+07 
-2.8000000000000012e+00 -2.6004248698155813e-01 +9.8554206895639534e-04 -2.2246390879620762e-01 +1.4809573732865319e+01 +3.6370232927522638e+03 -5.2070739801997181e+04 -1.3118369678535964e+07 
-2.9000000000000012e+00 -2.6004254970456137e-01 +9.9750144159220250e-04 -2.1910213995311115e-01 +1.4555242191268267e+01 +3.5950088646852200e+03 -5.0942500754149187e+04 -1.2972206613672342e+07 
-3.0000000000000013e+00 -2.6004261240347393e-01 +1.0095352839661308e-03 -2.1585141822583015e-01 +1.4292893270128735e+01 +3.5553887526684134e+03 -4.9768948107385520e+04 -1.2837139965363236e+07 
-3.1000000000000014e+00 -2.6004267446921475e-01 +1.0215232078009326e-03 -2.1275054462325751e-01 +1.4025410486729116e+01 +3.5186637304219257e+03 -4.8564716791310013e+04 -1.2715094141048379e+07 
-3.2000000000000015e+00 -2.6004273529260574e-01 +1.0333448674521616e-03 -2.0983832929961430e-01 +1.3755676349809127e+01 +3.4853347236566092e+03 -4.7344436514518471e+04 -1.2607994218020359e+07 
-3.3000000000000016e+00 -2.6004279426433163e-01 +1.0448799621142935e-03 -2.0715359625612190e-01 +1.3486572325444232e+01 +3.4559028960631795e+03 -4.6122731648393659e+04 -1.2517766342328668e+07 
-3.4000000000000017e+00 -2.6004285077497191e-01 +1.0560082393344110e-03 -2.0473517963283100e-01 +1.3220978755138860e+01 +3.4308695809966280e+03 -4.4914220799582668e+04 -1.2446337411165508e+07 
-3.5000000000000018e+00 -2.6004290421495502e-01 +1.0666094992829655e-03 -2.0262192882213609e-01 +1.2961774751395131e+01 +3.4107363721366128e+03 -4.3733516259711723e+04 -1.2395635484087011e+07 
-3.6000000000000019e+00 -2.6004295397456517e-01 +1.0765635962086133e-03 -2.0085270756683515e-01 +1.2711838186782419e+01 +3.3960051069107972e+03 -4.2595224022261747e+04 -1.2367589707385732e+07 
-3.7000000000000020e+00 -2.6004299944393339e-01 +1.0857504420007673e-03 -1.9946639493264418e-01 +1.2474045603963066e+01 +3.3871778818387106e+03 -4.1513943292913900e+04 -1.2364130377248781e+07 
-3.8000000000000020e+00 -2.6004304001302764e-01 +1.0940500098778885e-03 -1.9850188640388011e-01 +1.2251272139691501e+01 +3.3847570727225593e+03 -4.0504266134726058e+04 -1.2387189034874747e+07 
-3.9000000000000021e+00 -2.6004307507164004e-01 +1.1013423377482570e-03 -1.9799809524637152e-01 +1.2046391445138511e+01 +3.3892453570069533e+03 -3.9580777049371522e+04 -1.2438698561847882e+07 
-4.0000000000000018e+00 -2.6004310400938052e-01 +1.1075075348291144e-03 -1.9799395131486938e-01 +1.1862275856544729e+01 +3.4011457382429485e+03 -3.8758051312842974e+04 -1.2520593146617301e+07 
-4.1000000000000014e+00 -2.6004312640725075e-01 +1.1124543702785220e-03 -1.9851350806486856e-01 +1.1701314047994495e+01 +3.4207492983717393e+03 -3.8048197862253255e+04 -1.2633937328666449e+07 
-4.2000000000000011e+00 -2.6004314265810857e-01 +1.1161957496947416e-03 -1.9952163368224718e-01 +1.1563850372262047e+01 +3.4474951137858684e+03 -3.7453021521922397e+04 -1.2776317274615169e+07 
-4.3000000000000007e+00 -2.6004315337208772e-01 +1.1187685879727677e-03 -2.0096796251452076e-01 +1.1449692313340803e+01 +3.4806020130083330e+03 -3.6971601992853095e+04 -1.2944420157394789e+07 
-4.4000000000000004e+00 -2.6004315915936116e-01 +1.1202097532272111e-03 -2.0280212380733217e-01 +1.1358648524012802e+01 +3.5192887144641359e+03 -3.6603026161400645e+04 -1.3134932512474803e+07 
-4.5000000000000000e+00 -2.6004316063009797e-01 +1.1205560725812923e-03 -2.0497374861843032e-01 +1.1290528763950219e+01 +3.5627739503967646e+03 -3.6346387242412515e+04 -1.3344540860644793e+07 
-4.5999999999999996e+00 -2.6004315839447784e-01 +1.1198443275510556e-03 -2.0743246782592870e-01 +1.1245144023272083e+01 +3.6102764256263126e+03 -3.6200785472742929e+04 -1.3569931501618901e+07 
-4.6999999999999993e+00 -2.6004315306268938e-01 +1.1181112513185946e-03 -2.1012791266414813e-01 +1.1222306593410394e+01 +3.6610148285955524e+03 -3.6165328508324623e+04 -1.3807790567452068e+07 
-4.7999999999999989e+00 -2.6004314524493116e-01 +1.1153935255205100e-03 -2.1300971489741458e-01 +1.1221830153430723e+01 +3.7142078345718141e+03 -3.6239131910180819e+04 -1.4054804035082575e+07 
-4.8999999999999986e+00 -2.6004313555141989e-01 +1.1117277773599937e-03 -2.1602750549486663e-01 +1.1243529839242134e+01 +3.7690740774383662e+03 -3.6421319513301860e+04 -1.4307657583451686e+07 
-4.9999999999999982e+00 -2.6004312459239448e-01 +1.1071505735579870e-03 -2.1913091494440795e-01 +1.1287222416107774e+01 +3.8248321583138677e+03 -3.6711024423743744e+04 -1.4563036639094759e+07 
-5.0999999999999979e+00 -2.6004311297810045e-01 +1.1016984203784221e-03 -2.2226957456911192e-01 +1.1352726261997491e+01 +3.8807006660457541e+03 -3.7107388886791588e+04 -1.4817626460085029e+07 
-5.1999999999999975e+00 -2.6004310131882424e-01 +1.0954077578777548e-03 -2.2539311314114732e-01 +1.1439861530927519e+01 +3.9358981157620951e+03 -3.7609565229340806e+04 -1.5068111850207597e+07 
-5.2999999999999972e+00 -2.6004309022486366e-01 +1.0883149573023907e-03 -2.2845116017721565e-01 +1.1548450216925502e+01 +3.9896430081728740e+03 -3.8216716207069803e+04 -1.5311177429666821e+07 
-5.3999999999999968e+00 -2.6004308030656459e-01 +1.0804563172042642e-03 -2.3139334186093180e-01 +1.1678316254227330e+01 +4.0411537537231729e+03 -3.8928015555539183e+04 -1.5543507278903011e+07 
-5.4999999999999964e+00 -2.6004307217428663e-01 +1.0718680608356108e-03 -2.3416928526364628e-01 +1.1829285593201911e+01 +4.0896487497783532e+03 -3.9742648441329970e+04 -1.5761785293166675e+07 
-5.5999999999999961e+00 -2.6004306643843406e-01 +1.0625863320899561e-03 -2.3672861477271595e-01 +1.2001186295105425e+01 +4.1343463136878318e+03 -4.0659811949465620e+04 -1.5962694867246058e+07 
-5.6999999999999957e+00 -2.6004306370945224e-01 +1.0526471916481690e-03 -2.3902095259481854e-01 +1.2193848646017075e+01 +4.1744646911915452e+03 -4.1678715762358719e+04 -1.6142918930117935e+07 
-5.7999999999999954e+00 -2.6004306459782639e-01 +1.0420866146863045e-03 -2.4099591921008026e-01 +1.2407105211718669e+01 +4.2092220649428791e+03 -4.2798582449545662e+04 -1.6299139983391410e+07 
-5.8999999999999950e+00 -2.6004306971407859e-01 +1.0309404864164121e-03 -2.4260313361644414e-01 +1.2640790952910049e+01 +4.2378365564776814e+03 -4.4018648102570784e+04 -1.6428040101380758e+07 
-5.9999999999999947e+00 -2.6004307966876888e-01 +1.0192446193909130e-03 -2.4379221299861062e-01 +1.2894741313264873e+01 +4.2595259715965867e+03 -4.5338162976828287e+04 -1.6526300251721974e+07 
-6.0999999999999943e+00 -2.6004309491348832e-01 +1.0070357086017273e-03 -2.4452518806519352e-01 +1.3168433399699403e+01 +4.2736766663269118e+03 -4.6754509219628024e+04 -1.6591286506408185e+07 
-6.1999999999999940e+00 -2.6004311527179108e-01 +9.9437374343994979e-04 -2.4481385948470011e-01 +1.3459807470863193e+01 +4.2804595047557877e+03 -4.8256701457748590e+04 -1.6623717022294991e+07 
-6.2999999999999936e+00 -2.6004314040581683e-01 +9.8133427530625495e-04 -2.4468399032088661e-01 +1.3766157130425984e+01 +4.2802984130133791e+03 -4.9830421443300147e+04 -1.6625445140735127e+07 
-6.3999999999999932e+00 -2.6004316997768340e-01 +9.6799304227515712e-04 -2.4416136699082264e-01 +1.4084769322442039e+01 +4.2736181649067566e+03 -5.1461321752083029e+04 -1.6598328369088134e+07 
-6.4999999999999929e+00 -2.6004320364963862e-01 +9.5442581309262281e-04 -2.4327175881159768e-01 +1.4412930083651247e+01 +4.2608432585002956e+03 -5.3135049504507442e+04 -1.6544223093303462e+07 
-6.5999999999999925e+00 -2.6004324108407617e-01 +9.4070838825840075e-04 -2.4204091565365266e-01 +1.4747924510982793e+01 +4.2423978716890870e+03 -5.4837246165828576e+04 -1.6464984371306889e+07 
-6.6999999999999922e+00 -2.6004328194354748e-01 +9.2691660209804553e-04 -2.4049456680722042e-01 +1.5087036702389128e+01 +4.2187058461786582e+03 -5.6553547196263848e+04 -1.6362465874047467e+07 
-6.7999999999999918e+00 -2.6004332589074486e-01 +9.1312632347267681e-04 -2.3865842267542731e-01 +1.5427549735545995e+01 +4.1901907190026295e+03 -5.8269581915915289e+04 -1.6238520035524493e+07 
-6.8999999999999915e+00 -2.6004337258853638e-01 +8.9941345914030634e-04 -2.3655817059560111e-01 +1.5766745569484071e+01 +4.1572756475410624e+03 -5.9970972924733935e+04 -1.6094997712035025e+07 
-6.9999999999999911e+00 -2.6004342169994787e-01 +8.8585395347094904e-04 -2.3421947709835181e-01 +1.6101905055009901e+01 +4.1203834545180998e+03 -6.1643336156983692e+04 -1.5933748403053047e+07 
-7.0999999999999908e+00 -2.6004347288818608e-01 +8.7252379214787881e-04 -2.3166798468244251e-01 +1.6430307824331646e+01 +4.0799365683368360e+03 -6.3272280226680741e+04 -1.5756619976268124e+07 
-7.1999999999999904e+00 -2.6004352581662771e-01 +8.5949900286466175e-04 -2.2892931352554388e-01 +1.6749232273649319e+01 +4.0363570591812140e+03 -6.4843406324199423e+04 -1.5565458849320482e+07 
-7.2999999999999901e+00 -2.6004358014884077e-01 +8.4685565640099875e-04 -2.2602905852200839e-01 +1.7055955527452966e+01 +3.9900665847022847e+03 -6.6342307986438012e+04 -1.5362109741974419e+07 
-7.3999999999999897e+00 -2.6004363554858306e-01 +8.3466987018200698e-04 -2.2299278962156457e-01 +1.7347753340783115e+01 +3.9414863994918624e+03 -6.7754570538572792e+04 -1.5148415730354212e+07 
-7.4999999999999893e+00 -2.6004369167980662e-01 +8.2301780801043579e-04 -2.1984605089802470e-01 +1.7621900101988981e+01 +3.8910373374780283e+03 -6.9065771084425462e+04 -1.4926218166867668e+07 
-7.5999999999999890e+00 -2.6004374820667348e-01 +8.1197568332224497e-04 -2.1661435905943799e-01 +1.7875668740396208e+01 +3.8391397902673311e+03 -7.0261477970277498e+04 -1.4697356598068358e+07 
-7.6999999999999886e+00 -2.6004380479354250e-01 +8.0161975940866762e-04 -2.1332320447468495e-01 +1.8106330720137276e+01 +3.7862137243401648e+03 -7.1327250738777700e+04 -1.4463668841868715e+07 
-7.7999999999999883e+00 -2.6004386110499478e-01 +7.9202635300275857e-04 -2.0999804853858645e-01 +1.8311155933419027e+01 +3.7326786376399637e+03 -7.2248639494701987e+04 -1.4226990802734595e+07 
-7.8999999999999879e+00 -2.6004391680583017e-01 +7.8327183366570915e-04 -2.0666432356816469e-01 +1.8487412722366400e+01 +3.6789535569674013e+03 -7.3011185031885412e+04 -1.3989156460217612e+07 
-7.9999999999999876e+00 -2.6004397156122155e-01 +7.7543250026317317e-04 -2.0334742740410680e-01 +1.8632375649634223e+01 +3.6254576326007350e+03 -7.3600455140837134e+04 -1.3752001258624917e+07 
-8.0999999999999872e+00 -2.6004402510307550e-01 +7.6856450351619001e-04 -2.0006814940057996e-01 +1.8744155474449453e+01 +3.5725714911008954e+03 -7.4006758008192963e+04 -1.3517273139685690e+07 
-8.1999999999999869e+00 -2.6004407733220619e-01 +7.6264332659262883e-04 -1.9683285971376441e-01 +1.8823808774436394e+01 +3.5204253535311409e+03 -7.4236912178654224e+04 -1.3285612920224676e+07 
-8.2999999999999865e+00 -2.6004412817367112e-01 +7.5761454586610382e-04 -1.9364391827434282e-01 +1.8873513561464467e+01 +3.4690301374537917e+03 -7.4303795319001831e+04 -1.3057039869343048e+07 
-8.3999999999999861e+00 -2.6004417755256370e-01 +7.5342339878673738e-04 -1.9050364024438726e-01 +1.8895462818946008e+01 +3.4183948462490807e+03 -7.4220352841028740e+04 -1.2831563584379118e+07 
-8.4999999999999858e+00 -2.6004422539383826e-01 +7.5001512675508324e-04 -1.8741436205017745e-01 +1.8891849637878494e+01 +3.3685288756789769e+03 -7.3999531335489621e+04 -1.2609195412659626e+07 
-8.5999999999999854e+00 -2.6004427162231880e-01 +7.4733497747005650e-04 -1.8437844056493530e-01 +1.8864867156136615e+01 +3.3194419983323569e+03 -7.3654278241921507e+04 -1.2389948374783808e+07 
-8.6999999999999851e+00 -2.6004431616266571e-01 +7.4532820470820218e-04 -1.8139825733999509e-01 +1.8816708569858580e+01 +3.2711444430994857e+03 -7.3197541925366677e+04 -1.2173837535577318e+07 
-8.7999999999999847e+00 -2.6004435893939704e-01 +7.4394006646860992e-04 -1.7847621599705155e-01 +1.8749567198048393e+01 +3.2236468446134991e+03 -7.2642272080335344e+04 -1.1960879759768603e+07 
-8.8999999999999844e+00 -2.6004439987686717e-01 +7.4311582894735447e-04 -1.7561474501176794e-01 +1.8665636367565170e+01 +3.1769602952701312e+03 -7.2001419065446826e+04 -1.1751093952950018e+07 
-8.9999999999999840e+00 -2.6004443889926665e-01 +7.4280076233628075e-04 -1.7281629811481133e-01 +1.8567109548749009e+01 +3.1310963536946015e+03 -7.1287934723116472e+04 -1.1544501100997517e+07 
-9.0999999999999837e+00 -2.6004447593061614e-01 +7.4294014414758925e-04 -1.7008335485112108e-01 +1.8456180260051845e+01 +3.0860670529001013e+03 -7.0514771831563165e+04 -1.1341124299866460e+07 
-9.1999999999999833e+00 -2.6004451089476310e-01 +7.4347925654657827e-04 -1.6741842126086784e-01 +1.8335042155551299e+01 +3.0418849133573240e+03 -6.9694884635907438e+04 -1.1140988814899189e+07 
-9.2999999999999829e+00 -2.6004454371537211e-01 +7.4436338975006604e-04 -1.6482403122160327e-01 +1.8205888929985360e+01 +2.9985629676088820e+03 -6.8841228310061095e+04 -1.0944122191971645e+07 
-9.3999999999999826e+00 -2.6004457431592198e-01 +7.4553783932012653e-04 -1.6230274694913768e-01 +1.8070914409143722e+01 +2.9561147697589868e+03 -6.7966759510542033e+04 -1.0750554300112853e+07 
-9.4999999999999822e+00 -2.6004460261970502e-01 +7.4694790775143910e-04 -1.5985715920054128e-01 +1.7932312504296625e+01 +2.9145543980249968e+03 -6.7084436112445605e+04 -1.0560317337155011e+07 
-9.5999999999999819e+00 -2.6004462854980726e-01 +7.4853890346097930e-04 -1.5748988977960610e-01 +1.7792277250840037e+01 +2.8738965012522858e+03 -6.6207217457327075e+04 -1.0373446044078501e+07 
-9.6999999999999815e+00 -2.6004465202912708e-01 +7.5025614280067703e-04 -1.5520358948380567e-01 +1.7653002758698246e+01 +2.8341562606267157e+03 -6.5348064091803215e+04 -1.0189977523654664e+07 
-9.7999999999999812e+00 -2.6004467298034012e-01 +7.5204494883047035e-04 -1.5300094259084029e-01 +1.7516683250593903e+01 +2.7953494731961759e+03 -6.4519937993570798e+04 -1.0009951627574276e+07 
-9.8999999999999808e+00 -2.6004469132592251e-01 +7.5385065035129802e-04 -1.5088466390159630e-01 +1.7385513099104177e+01 +2.7574924946431665e+03 -6.3735802807715452e+04 -9.8334106806211919e+06 
-9.9999999999999805e+00 -2.6004470698773030e-01 +7.5561864214609541e-04 -1.4885756052710666e-01 +1.7261676988260803e+01 +2.7206025104765436e+03 -6.3008539810232287e+04 -9.6603970576527286e+06 
-1.0099999999999980e+01 -2.6004471990414374e-01 +7.5729491439133830e-04 -1.4692485460200652e-01 +1.7147071235575421e+01 +2.6847270323174616e+03 -6.2348669333292091e+04 -9.4910189567260407e+06 
