# trajectory
# s[mm] rx[mm] ry[mm] rz[mm] px[rad] py[rad] pz[rad]
0.0000000000000000e+00 +4.6467000000000001e+00 +0.0000000000000000e+00 +0.0000000000000000e+00 +0.0000000000000000e+00 +0.0000000000000000e+00 +1.0000000000000000e+00
-1.0000000000000001e-01 +4.6466978347151153e+00 +0.0000000000000000e+00 -9.9999999968743605e-02 +4.3305698591637811e-05 +0.0000000000000000e+00 +9.9999999906230819e-01
-2.0000000000000001e-01 +4.6466913388601059e+00 +0.0000000000000000e+00 -1.9999999974994881e-01 +8.6611402452588455e-05 +0.0000000000000000e+00 +9.9999999624923241e-01
-3.0000000000000004e-01 +4.6466805124344583e+00 +0.0000000000000000e+00 -2.9999999915607722e-01 +1.2991711130790480e-04 +0.0000000000000000e+00 +9.9999999156077202e-01
-4.0000000000000002e-01 +4.6466653554376869e+00 +0.0000000000000000e+00 -3.9999999799959035e-01 +1.7322282488257701e-04 +0.0000000000000000e+00 +9.9999998499692633e-01
-5.0000000000000000e-01 +4.6466458678693332e+00 +0.0000000000000000e+00 -4.9999999609294965e-01 +2.1652854290152960e-04 +0.0000000000000000e+00 +9.9999997655769479e-01
-5.9999999999999998e-01 +4.6466220497289674e+00 +0.0000000000000000e+00 -5.9999999324861641e-01 +2.5983426508961814e-04 +0.0000000000000000e+00 +9.9999996624307674e-01
-6.9999999999999996e-01 +4.6465939010161854e+00 +0.0000000000000000e+00 -6.9999998927905205e-01 +3.0313999117162612e-04 +0.0000000000000000e+00 +9.9999995405307174e-01
-7.9999999999999993e-01 +4.6465614217306124e+00 +0.0000000000000000e+00 -7.9999998399671779e-01 +3.4644572087226132e-04 +0.0000000000000000e+00 +9.9999993998767933e-01
-8.9999999999999991e-01 +4.6465246118718992e+00 +0.0000000000000000e+00 -8.9999997721407499e-01 +3.8975145391615242e-04 +0.0000000000000000e+00 +9.9999992404689908e-01
-9.9999999999999989e-01 +4.6464834714397263e+00 +0.0000000000000000e+00 -9.9999996874358466e-01 +4.3305719002784517e-04 +0.0000000000000000e+00 +9.9999990623073054e-01
-1.0999999999999999e+00 +4.6464380004338004e+00 +0.0000000000000000e+00 -1.0999999583977080e+00 +4.7636292893179876e-04 +0.0000000000000000e+00 +9.9999988653917338e-01
-1.2000000000000000e+00 +4.6463881988538560e+00 +0.0000000000000000e+00 -1.1999999459889064e+00 +5.1966867035238161e-04 +0.0000000000000000e+00 +9.9999986497222726e-01
-1.3000000000000000e+00 +4.6463340666996551e+00 +0.0000000000000000e+00 -1.2999999313296406e+00 +5.6297441401386751e-04 +0.0000000000000000e+00 +9.9999984152989185e-01
-1.4000000000000001e+00 +4.6462756039709880e+00 +0.0000000000000000e+00 -1.3999999142323718e+00 +6.0628015964043125e-04 +0.0000000000000000e+00 +9.9999981621216694e-01
-1.5000000000000002e+00 +4.6462128106676710e+00 +0.0000000000000000e+00 -1.4999998945095609e+00 +6.4958590695614446e-04 +0.0000000000000000e+00 +9.9999978901905229e-01
-1.6000000000000003e+00 +4.6461456867895494e+00 +0.0000000000000000e+00 -1.5999998719736692e+00 +6.9289165568497089e-04 +0.0000000000000000e+00 +9.9999975995054768e-01
-1.7000000000000004e+00 +4.6460742323364963e+00 +0.0000000000000000e+00 -1.6999998464371575e+00 +7.3619740555076209e-04 +0.0000000000000000e+00 +9.9999972900665302e-01
-1.8000000000000005e+00 +4.6459984473084113e+00 +0.0000000000000000e+00 -1.7999998177124867e+00 +7.7950315627725261e-04 +0.0000000000000000e+00 +9.9999969618736828e-01
-1.9000000000000006e+00 +4.6459183317052215e+00 +0.0000000000000000e+00 -1.8999997856121180e+00 +8.2280890758805491e-04 +0.0000000000000000e+00 +9.9999966149269326e-01
-2.0000000000000004e+00 +4.6458338855268835e+00 +0.0000000000000000e+00 -1.9999997499485123e+00 +8.6611465920665473e-04 +0.0000000000000000e+00 +9.9999962492262795e-01
-2.1000000000000005e+00 +4.6457451087733794e+00 +0.0000000000000000e+00 -2.0999997105341306e+00 +9.0942041085753753e-04 +0.0000000000000000e+00 +9.9999958647717235e-01
-2.2000000000000006e+00 +4.6456520014447200e+00 +0.0000000000000000e+00 -2.1999996671814337e+00 +9.5272616227863409e-04 +0.0000000000000000e+00 +9.9999954615632658e-01
-2.3000000000000007e+00 +4.6455545635409399e+00 +0.0000000000000000e+00 -2.2999996197028829e+00 +9.9603191323376929e-04 +0.0000000000000000e+00 +9.9999950396009063e-01
-2.4000000000000008e+00 +4.6454527950620959e+00 +0.0000000000000000e+00 -2.3999995679109389e+00 +1.0393376635137958e-03 +0.0000000000000000e+00 +9.9999945988846450e-01
-2.5000000000000009e+00 +4.6453466960082652e+00 +0.0000000000000000e+00 -2.4999995116180629e+00 +1.0826434129365954e-03 +0.0000000000000000e+00 +9.9999941394144820e-01
-2.6000000000000010e+00 +4.6452362663795421e+00 +0.0000000000000000e+00 -2.5999994506367154e+00 +1.1259491613470822e-03 +0.0000000000000000e+00 +9.9999936611904183e-01
-2.7000000000000011e+00 +4.6451215061760340e+00 +0.0000000000000000e+00 -2.6999993847793582e+00 +1.1692549086172056e-03 +0.0000000000000000e+00 +9.9999931642124540e-01
-2.8000000000000012e+00 +4.6450024153978600e+00 +0.0000000000000000e+00 -2.7999993138584518e+00 +1.2125606546459543e-03 +0.0000000000000000e+00 +9.9999926484805890e-01
-2.9000000000000012e+00 +4.6448789940451487e+00 +0.0000000000000000e+00 -2.8999992376864570e+00 +1.2558663993593607e-03 +0.0000000000000000e+00 +9.9999921139948222e-01
-3.0000000000000013e+00 +4.6447512421180335e+00 +0.0000000000000000e+00 -2.9999991560758352e+00 +1.2991721427105061e-03 +0.0000000000000000e+00 +9.9999915607551537e-01
-3.1000000000000014e+00 +4.6446191596166528e+00 +0.0000000000000000e+00 -3.0999990688390473e+00 +1.3424778846795262e-03 +0.0000000000000000e+00 +9.9999909887615823e-01
-3.2000000000000015e+00 +4.6444827465411436e+00 +0.0000000000000000e+00 -3.1999989757885539e+00 +1.3857836252736170e-03 +0.0000000000000000e+00 +9.9999903980141069e-01
-3.3000000000000016e+00 +4.6443420028916425e+00 +0.0000000000000000e+00 -3.2999988767368165e+00 +1.4290893645270424e-03 +0.0000000000000000e+00 +9.9999897885127242e-01
-3.4000000000000017e+00 +4.6441969286682809e+00 +0.0000000000000000e+00 -3.3999987714962954e+00 +1.4723951025011413e-03 +0.0000000000000000e+00 +9.9999891602574331e-01
-3.5000000000000018e+00 +4.6440475238711825e+00 +0.0000000000000000e+00 -3.4999986598794521e+00 +1.5157008392843354e-03 +0.0000000000000000e+00 +9.9999885132482291e-01
-3.6000000000000019e+00 +4.6438937885004599e+00 +0.0000000000000000e+00 -3.5999985416987470e+00 +1.5590065749921383e-03 +0.0000000000000000e+00 +9.9999878474851089e-01
-3.7000000000000020e+00 +4.6437357225562144e+00 +0.0000000000000000e+00 -3.6999984167666411e+00 +1.6023123097671642e-03 +0.0000000000000000e+00 +9.9999871629680681e-01
-3.8000000000000020e+00 +4.6435733260385312e+00 +0.0000000000000000e+00 -3.7999982848955951e+00 +1.6456180437791385e-03 +0.0000000000000000e+00 +9.9999864596971011e-01
-3.9000000000000021e+00 +4.6434065989474771e+00 +0.0000000000000000e+00 -3.8999981458980697e+00 +1.6889237772249074e-03 +0.0000000000000000e+00 +9.9999857376722012e-01
-4.0000000000000018e+00 +4.6432355412830972e+00 +0.0000000000000000e+00 -3.9999979995865260e+00 +1.7322295103284497e-03 +0.0000000000000000e+00 +9.9999849968933618e-01
-4.1000000000000014e+00 +4.6430601530454139e+00 +0.0000000000000000e+00 -4.0999978457734239e+00 +1.7755352433375940e-03 +0.0000000000000000e+00 +9.9999842373605741e-01
-4.2000000000000011e+00 +4.6428804342344243e+00 +0.0000000000000000e+00 -4.1999976842712243e+00 +1.8188409764877979e-03 +0.0000000000000000e+00 +9.9999834590738301e-01
-4.3000000000000007e+00 +4.6426963848501046e+00 +0.0000000000000000e+00 -4.2999975148923877e+00 +1.8621467099659186e-03 +0.0000000000000000e+00 +9.9999826620331211e-01
-4.4000000000000004e+00 +4.6425080048924157e+00 +0.0000000000000000e+00 -4.3999973374493742e+00 +1.9054524439069177e-03 +0.0000000000000000e+00 +9.9999818462384404e-01
-4.5000000000000000e+00 +4.6423152943613051e+00 +0.0000000000000000e+00 -4.4999971517546440e+00 +1.9487581783938605e-03 +0.0000000000000000e+00 +9.9999810116897814e-01
-4.5999999999999996e+00 +4.6421182532567169e+00 +0.0000000000000000e+00 -4.5999969576206565e+00 +1.9920639134579149e-03 +0.0000000000000000e+00 +9.9999801583871373e-01
-4.6999999999999993e+00 +4.6419168815785943e+00 +0.0000000000000000e+00 -4.6999967548598729e+00 +2.0353696490783505e-03 +0.0000000000000000e+00 +9.9999792863305037e-01
-4.7999999999999989e+00 +4.6417111793268848e+00 +0.0000000000000000e+00 -4.7999965432847533e+00 +2.0786753851825372e-03 +0.0000000000000000e+00 +9.9999783955198762e-01
-4.8999999999999986e+00 +4.6415011465015459e+00 +0.0000000000000000e+00 -4.8999963227077572e+00 +2.1219811216459422e-03 +0.0000000000000000e+00 +9.9999774859552515e-01
-4.9999999999999982e+00 +4.6412867831025499e+00 +0.0000000000000000e+00 -4.9999960929413447e+00 +2.1652868582921298e-03 +0.0000000000000000e+00 +9.9999765576366284e-01
-5.0999999999999979e+00 +4.6410680891298890e+00 +0.0000000000000000e+00 -5.0999958537979762e+00 +2.2085925948927589e-03 +0.0000000000000000e+00 +9.9999756105640059e-01
-5.1999999999999975e+00 +4.6408450645835817e+00 +0.0000000000000000e+00 -5.1999956050901117e+00 +2.2518983311675803e-03 +0.0000000000000000e+00 +9.9999746447373850e-01
-5.2999999999999972e+00 +4.6406177094636769e+00 +0.0000000000000000e+00 -5.2999953466302108e+00 +2.2952040667844342e-03 +0.0000000000000000e+00 +9.9999736601567690e-01
-5.3999999999999968e+00 +4.6403860237702590e+00 +0.0000000000000000e+00 -5.3999950782307335e+00 +2.3385098013592484e-03 +0.0000000000000000e+00 +9.9999726568221614e-01
-5.4999999999999964e+00 +4.6401500075034541e+00 +0.0000000000000000e+00 -5.4999947997041403e+00 +2.3818155344560344e-03 +0.0000000000000000e+00 +9.9999716347335688e-01
-5.5999999999999961e+00 +4.6399096606634336e+00 +0.0000000000000000e+00 -5.5999945108628912e+00 +2.4251212655868851e-03 +0.0000000000000000e+00 +9.9999705938909988e-01
-5.6999999999999957e+00 +4.6396649832504204e+00 +0.0000000000000000e+00 -5.6999942115194466e+00 +2.4684269942119716e-03 +0.0000000000000000e+00 +9.9999695342944617e-01
-5.7999999999999954e+00 +4.6394159752646944e+00 +0.0000000000000000e+00 -5.7999939014862667e+00 +2.5117327197395393e-03 +0.0000000000000000e+00 +9.9999684559439694e-01
-5.8999999999999950e+00 +4.6391626367065975e+00 +0.0000000000000000e+00 -5.8999935805758126e+00 +2.5550384415259043e-03 +0.0000000000000000e+00 +9.9999673588395377e-01
-5.9999999999999947e+00 +4.6389049675765373e+00 +0.0000000000000000e+00 -5.9999932486005445e+00 +2.5983441588754508e-03 +0.0000000000000000e+00 +9.9999662429811820e-01
-6.0999999999999943e+00 +4.6386429678749952e+00 +0.0000000000000000e+00 -6.0999929053729236e+00 +2.6416498710445956e-03 +0.0000000000000000e+00 +9.9999651083689212e-01
-6.1999999999999940e+00 +4.6383766376025264e+00 +0.0000000000000000e+00 -6.1999925507054101e+00 +2.6849555772854744e-03 +0.0000000000000000e+00 +9.9999639550027764e-01
-6.2999999999999936e+00 +4.6381059767597597e+00 +0.0000000000000000e+00 -6.2999921844104660e+00 +2.7282612768896354e-03 +0.0000000000000000e+00 +9.9999627828827675e-01
-6.3999999999999932e+00 +4.6378309853473922e+00 +0.0000000000000000e+00 -6.3999918063005525e+00 +2.7715669691920201e-03 +0.0000000000000000e+00 +9.9999615920089158e-01
-6.4999999999999929e+00 +4.6375516633661853e+00 +0.0000000000000000e+00 -6.4999914161881316e+00 +2.8148726535709703e-03 +0.0000000000000000e+00 +9.9999603823812411e-01
-6.5999999999999925e+00 +4.6372680108169613e+00 +0.0000000000000000e+00 -6.5999910138856652e+00 +2.8581783294482350e-03 +0.0000000000000000e+00 +9.9999591539997634e-01
-6.6999999999999922e+00 +4.6369800277005968e+00 +0.0000000000000000e+00 -6.6999905992056146e+00 +2.9014839962889791e-03 +0.0000000000000000e+00 +9.9999579068645028e-01
-6.7999999999999918e+00 +4.6366877140180209e+00 +0.0000000000000000e+00 -6.7999901719604425e+00 +2.9447896536017905e-03 +0.0000000000000000e+00 +9.9999566409754781e-01
-6.8999999999999915e+00 +4.6363910697702089e+00 +0.0000000000000000e+00 -6.8999897319626111e+00 +2.9880953009386881e-03 +0.0000000000000000e+00 +9.9999553563327082e-01
-6.9999999999999911e+00 +4.6360900949581794e+00 +0.0000000000000000e+00 -6.9999892790245841e+00 +3.0314009378951301e-03 +0.0000000000000000e+00 +9.9999540529362108e-01
-7.0999999999999908e+00 +4.6357847895829885e+00 +0.0000000000000000e+00 -7.0999888129588236e+00 +3.0747065641100234e-03 +0.0000000000000000e+00 +9.9999527307860026e-01
-7.1999999999999904e+00 +4.6354751536457259e+00 +0.0000000000000000e+00 -7.1999883335777923e+00 +3.1180121792657310e-03 +0.0000000000000000e+00 +9.9999513898821013e-01
-7.2999999999999901e+00 +4.6351611871475127e+00 +0.0000000000000000e+00 -7.2999878406939533e+00 +3.1613177830880830e-03 +0.0000000000000000e+00 +9.9999500302245214e-01
-7.3999999999999897e+00 +4.6348428900894936e+00 +0.0000000000000000e+00 -7.3999873341197704e+00 +3.2046233753463835e-03 +0.0000000000000000e+00 +9.9999486518132774e-01
-7.4999999999999893e+00 +4.6345202624728348e+00 +0.0000000000000000e+00 -7.4999868136677064e+00 +3.2479289558534218e-03 +0.0000000000000000e+00 +9.9999472546483836e-01
-7.5999999999999890e+00 +4.6341933042987193e+00 +0.0000000000000000e+00 -7.5999862791502260e+00 +3.2912345244654815e-03 +0.0000000000000000e+00 +9.9999458387298512e-01
-7.6999999999999886e+00 +4.6338620155683419e+00 +0.0000000000000000e+00 -7.6999857303797921e+00 +3.3345400810823505e-03 +0.0000000000000000e+00 +9.9999444040576912e-01
-7.7999999999999883e+00 +4.6335263962829050e+00 +0.0000000000000000e+00 -7.7999851671688685e+00 +3.3778456256473299e-03 +0.0000000000000000e+00 +9.9999429506319137e-01
-7.8999999999999879e+00 +4.6331864464436148e+00 +0.0000000000000000e+00 -7.8999845893299190e+00 +3.4211511581472469e-03 +0.0000000000000000e+00 +9.9999414784525253e-01
-7.9999999999999876e+00 +4.6328421660516765e+00 +0.0000000000000000e+00 -7.9999839966754074e+00 +3.4644566786124625e-03 +0.0000000000000000e+00 +9.9999399875195338e-01
-8.0999999999999872e+00 +4.6324935551082911e+00 +0.0000000000000000e+00 -8.0999833890177975e+00 +3.5077621871153031e-03 +0.0000000000000000e+00 +9.9999384778329425e-01
-8.1999999999999869e+00 +4.6321406136146495e+00 +0.0000000000000000e+00 -8.1999827661695548e+00 +3.5510676837526615e-03 +0.0000000000000000e+00 +9.9999369493927559e-01
-8.2999999999999865e+00 +4.6317833415719329e+00 +0.0000000000000000e+00 -8.2999821279431423e+00 +3.5943731686285917e-03 +0.0000000000000000e+00 +9.9999354021989773e-01
-8.3999999999999861e+00 +4.6314217389813122e+00 +0.0000000000000000e+00 -8.3999814741510228e+00 +3.6376786418527295e-03 +0.0000000000000000e+00 +9.9999338362516088e-01
-8.4999999999999858e+00 +4.6310558058439470e+00 +0.0000000000000000e+00 -8.4999808046056629e+00 +3.6809841035402966e-03 +0.0000000000000000e+00 +9.9999322515506528e-01
-8.5999999999999854e+00 +4.6306855421609852e+00 +0.0000000000000000e+00 -8.5999801191195253e+00 +3.7242895538121055e-03 +0.0000000000000000e+00 +9.9999306480961103e-01
-8.6999999999999851e+00 +4.6303109479335616e+00 +0.0000000000000000e+00 -8.6999794175050731e+00 +3.7675949927945631e-03 +0.0000000000000000e+00 +9.9999290258879825e-01
-8.7999999999999847e+00 +4.6299320231627981e+00 +0.0000000000000000e+00 -8.7999786995747726e+00 +3.8109004206196761e-03 +0.0000000000000000e+00 +9.9999273849262704e-01
-8.8999999999999844e+00 +4.6295487678498048e+00 +0.0000000000000000e+00 -8.8999779651410869e+00 +3.8542058374250550e-03 +0.0000000000000000e+00 +9.9999257252109741e-01
-8.9999999999999840e+00 +4.6291611819956762e+00 +0.0000000000000000e+00 -8.9999772140164804e+00 +3.8975112433539188e-03 +0.0000000000000000e+00 +9.9999240467420925e-01
-9.0999999999999837e+00 +4.6287692656014920e+00 +0.0000000000000000e+00 -9.0999764460134163e+00 +3.9408166385550992e-03 +0.0000000000000000e+00 +9.9999223495196243e-01
-9.1999999999999833e+00 +4.6283730186683174e+00 +0.0000000000000000e+00 -9.1999756609443608e+00 +3.9841220231830463e-03 +0.0000000000000000e+00 +9.9999206335435675e-01
-9.2999999999999829e+00 +4.6279724411972021e+00 +0.0000000000000000e+00 -9.2999748586217770e+00 +4.0274273973978317e-03 +0.0000000000000000e+00 +9.9999188988139209e-01
-9.3999999999999826e+00 +4.6275675331891790e+00 +0.0000000000000000e+00 -9.3999740388581277e+00 +4.0707327613651546e-03 +0.0000000000000000e+00 +9.9999171453306801e-01
-9.4999999999999822e+00 +4.6271582946452643e+00 +0.0000000000000000e+00 -9.4999732014658775e+00 +4.1140381152563457e-03 +0.0000000000000000e+00 +9.9999153730938428e-01
-9.5999999999999819e+00 +4.6267447255664571e+00 +0.0000000000000000e+00 -9.5999723462574913e+00 +4.1573434592483737e-03 +0.0000000000000000e+00 +9.9999135821034035e-01
-9.6999999999999815e+00 +4.6263268259537380e+00 +0.0000000000000000e+00 -9.6999714730454336e+00 +4.2006487935238469e-03 +0.0000000000000000e+00 +9.9999117723593589e-01
-9.7999999999999812e+00 +4.6259045958080698e+00 +0.0000000000000000e+00 -9.7999705816421674e+00 +4.2439541182710218e-03 +0.0000000000000000e+00 +9.9999099438617023e-01
-9.8999999999999808e+00 +4.6254780351303948e+00 +0.0000000000000000e+00 -9.8999696718601555e+00 +4.2872594336838049e-03 +0.0000000000000000e+00 +9.9999080966104270e-01
-9.9999999999999805e+00 +4.6250471439216376e+00 +0.0000000000000000e+00 -9.9999687435118627e+00 +4.3305647399617606e-03 +0.0000000000000000e+00 +9.9999062306055275e-01
-1.0099999999999980e+01 +4.6246119221827007e+00 +0.0000000000000000e+00 -1.0099967796409754e+01 +4.3738700373078775e-03 +0.0000000000000000e+00 +9.9999043458469949e-01
-1.0199999999999980e+01 +4.6241723699144677e+00 +0.0000000000000000e+00 -1.0199966830366291e+01 +4.4171753259039581e-03 +0.0000000000000000e+00 +9.9999024423348237e-01
-1.0299999999999979e+01 +4.6237284871178073e+00 +0.0000000000000000e+00 -1.0299965845193938e+01 +4.4604806058859562e-03 +0.0000000000000000e+00 +9.9999005200690072e-01
-1.0399999999999979e+01 +4.6232802737935748e+00 +0.0000000000000000e+00 -1.0399964840705159e+01 +4.5037858773416964e-03 +0.0000000000000000e+00 +9.9998985790495420e-01
-1.0499999999999979e+01 +4.6228277299426210e+00 +0.0000000000000000e+00 -1.0499963816712418e+01 +4.5470911403108268e-03 +0.0000000000000000e+00 +9.9998966192764271e-01
-1.0599999999999978e+01 +4.6223708555657952e+00 +0.0000000000000000e+00 -1.0599962773028176e+01 +4.5903963947847718e-03 +0.0000000000000000e+00 +9.9998946407496625e-01
-1.0699999999999978e+01 +4.6219096506639490e+00 +0.0000000000000000e+00 -1.0699961709464899e+01 +4.6337016407066870e-03 +0.0000000000000000e+00 +9.9998926434692503e-01
-1.0799999999999978e+01 +4.6214441152379422e+00 +0.0000000000000000e+00 -1.0799960625835050e+01 +4.6770068779714083e-03 +0.0000000000000000e+00 +9.9998906274351962e-01
-1.0899999999999977e+01 +4.6209742492886479e+00 +0.0000000000000000e+00 -1.0899959521951091e+01 +4.7203121064254032e-03 +0.0000000000000000e+00 +9.9998885926475067e-01
-1.0999999999999977e+01 +4.6205000528169569e+00 +0.0000000000000000e+00 -1.0999958397625488e+01 +4.7636173258667185e-03 +0.0000000000000000e+00 +9.9998865391061920e-01
-1.1099999999999977e+01 +4.6200215258237831e+00 +0.0000000000000000e+00 -1.1099957252670702e+01 +4.8069225360449297e-03 +0.0000000000000000e+00 +9.9998844668112641e-01
-1.1199999999999976e+01 +4.6195386683100663e+00 +0.0000000000000000e+00 -1.1199956086899199e+01 +4.8502277366610867e-03 +0.0000000000000000e+00 +9.9998823757627375e-01
-1.1299999999999976e+01 +4.6190514802767808e+00 +0.0000000000000000e+00 -1.1299954900123444e+01 +4.8935329273676600e-03 +0.0000000000000000e+00 +9.9998802659606301e-01
-1.1399999999999975e+01 +4.6185599617249364e+00 +0.0000000000000000e+00 -1.1399953692155901e+01 +4.9368381077684858e-03 +0.0000000000000000e+00 +9.9998781374049617e-01
-1.1499999999999975e+01 +4.6180641126555857e+00 +0.0000000000000000e+00 -1.1499952462809032e+01 +4.9801432774187072e-03 +0.0000000000000000e+00 +9.9998759900957568e-01
-1.1599999999999975e+01 +4.6175639330698273e+00 +0.0000000000000000e+00 -1.1599951211895304e+01 +5.0234484358247190e-03 +0.0000000000000000e+00 +9.9998738240330420e-01
-1.1699999999999974e+01 +4.6170594229688131e+00 +0.0000000000000000e+00 -1.1699949939227182e+01 +5.0667535824441071e-03 +0.0000000000000000e+00 +9.9998716392168474e-01
