# trajectory
# s[mm] rx[mm] ry[mm] rz[mm] px[rad] py[rad] pz[rad]
0.0000000000000000e+00 +4.6467000000000001e+00 +0.0000000000000000e+00 +0.0000000000000000e+00 +0.0000000000000000e+00 +0.0000000000000000e+00 +1.0000000000000000e+00
1.0000000000000001e-01 +4.6466956865618139e+00 +0.0000000000000000e+00 +9.9999999875961684e-02 -8.6268761789550611e-05 +0.0000000000000000e+00 +9.9999999627885039e-01
2.0000000000000001e-01 +4.6466827462480440e+00 +0.0000000000000000e+00 +1.9999999900769350e-01 -1.7253751152038644e-04 +0.0000000000000000e+00 +9.9999998511540344e-01
3.0000000000000004e-01 +4.6466611790599455e+00 +0.0000000000000000e+00 +2.9999999665096588e-01 -2.5880624819901965e-04 +0.0000000000000000e+00 +9.9999996650966239e-01
4.0000000000000002e-01 +4.6466309849988718e+00 +0.0000000000000000e+00 +3.9999999206154957e-01 -3.4507497085452005e-04 +0.0000000000000000e+00 +9.9999994046163043e-01
5.0000000000000000e-01 +4.6465921640662735e+00 +0.0000000000000000e+00 +4.9999998449521571e-01 -4.3134367853851405e-04 +0.0000000000000000e+00 +9.9999990697131114e-01
5.9999999999999998e-01 +4.6465447162636941e+00 +0.0000000000000000e+00 +5.9999997320773568e-01 -5.1761237032518770e-04 +0.0000000000000000e+00 +9.9999986603870805e-01
6.9999999999999996e-01 +4.6464886415927689e+00 +0.0000000000000000e+00 +6.9999995745488131e-01 -6.0388104531129358e-04 +0.0000000000000000e+00 +9.9999981766382495e-01
7.9999999999999993e-01 +4.6464239400552216e+00 +0.0000000000000000e+00 +7.9999993649242473e-01 -6.9014970261616179e-04 +0.0000000000000000e+00 +9.9999976184666561e-01
8.9999999999999991e-01 +4.6463506116528634e+00 +0.0000000000000000e+00 +8.9999990957613862e-01 -7.7641834138171442e-04 +0.0000000000000000e+00 +9.9999969858723414e-01
9.9999999999999989e-01 +4.6462686563875906e+00 +0.0000000000000000e+00 +9.9999987596179596e-01 -8.6268696077248478e-04 +0.0000000000000000e+00 +9.9999962788553465e-01
1.0999999999999999e+00 +4.6461780742613819e+00 +0.0000000000000000e+00 +1.0999998349051701e+00 -9.4895555997563945e-04 +0.0000000000000000e+00 +9.9999954974157124e-01
1.2000000000000000e+00 +4.6460788652762952e+00 +0.0000000000000000e+00 +1.1999997856620348e+00 -1.0352241382010051e-03 +0.0000000000000000e+00 +9.9999946415534824e-01
1.3000000000000000e+00 +4.6459710294344667e+00 +0.0000000000000000e+00 +1.2999997274881645e+00 -1.1214926946810991e-03 +0.0000000000000000e+00 +9.9999937112687010e-01
1.4000000000000001e+00 +4.6458545667381088e+00 +0.0000000000000000e+00 +1.3999996596393338e+00 -1.2077612286711635e-03 +0.0000000000000000e+00 +9.9999927065614125e-01
1.5000000000000002e+00 +4.6457294771895068e+00 +0.0000000000000000e+00 +1.4999995813713178e+00 -1.2940297394492038e-03 +0.0000000000000000e+00 +9.9999916274316614e-01
1.6000000000000003e+00 +4.6455957607910161e+00 +0.0000000000000000e+00 +1.5999994919398923e+00 -1.3802982263160311e-03 +0.0000000000000000e+00 +9.9999904738794942e-01
1.7000000000000004e+00 +4.6454534175450632e+00 +0.0000000000000000e+00 +1.6999993906008333e+00 -1.4665666885953078e-03 +0.0000000000000000e+00 +9.9999892459049566e-01
1.8000000000000005e+00 +4.6453024474541387e+00 +0.0000000000000000e+00 +1.7999992766099171e+00 -1.5528351256335982e-03 +0.0000000000000000e+00 +9.9999879435080952e-01
1.9000000000000006e+00 +4.6451428505207986e+00 +0.0000000000000000e+00 +1.8999991492229209e+00 -1.6391035368004223e-03 +0.0000000000000000e+00 +9.9999865666889554e-01
2.0000000000000004e+00 +4.6449746267476613e+00 +0.0000000000000000e+00 +1.9999990076956220e+00 -1.7253719214883135e-03 +0.0000000000000000e+00 +9.9999851154475849e-01
2.1000000000000005e+00 +4.6447977761374029e+00 +0.0000000000000000e+00 +2.0999988512837984e+00 -1.8116402791137343e-03 +0.0000000000000000e+00 +9.9999835897840306e-01
2.2000000000000006e+00 +4.6446122986927589e+00 +0.0000000000000000e+00 +2.1999986792432287e+00 -1.8979086091265194e-03 +0.0000000000000000e+00 +9.9999819896983388e-01
2.3000000000000007e+00 +4.6444181944165157e+00 +0.0000000000000000e+00 +2.2999984908296915e+00 -1.9841769110192711e-03 +0.0000000000000000e+00 +9.9999803151905542e-01
2.4000000000000008e+00 +4.6442154633115083e+00 +0.0000000000000000e+00 +2.3999982852989663e+00 -2.0704451843281840e-03 +0.0000000000000000e+00 +9.9999785662607232e-01
2.5000000000000009e+00 +4.6440041053806169e+00 +0.0000000000000000e+00 +2.4999980619068327e+00 -2.1567134286330108e-03 +0.0000000000000000e+00 +9.9999767429088893e-01
2.6000000000000010e+00 +4.6437841206267612e+00 +0.0000000000000000e+00 +2.5999978199090710e+00 -2.2429816435570195e-03 +0.0000000000000000e+00 +9.9999748451350956e-01
2.7000000000000011e+00 +4.6435555090528959e+00 +0.0000000000000000e+00 +2.6999975585614617e+00 -2.3292498287669438e-03 +0.0000000000000000e+00 +9.9999728729393822e-01
2.8000000000000012e+00 +4.6433182706620082e+00 +0.0000000000000000e+00 +2.7999972771197856e+00 -2.4155179839729260e-03 +0.0000000000000000e+00 +9.9999708263217901e-01
2.9000000000000012e+00 +4.6430724054571098e+00 +0.0000000000000000e+00 +2.8999969748398247e+00 -2.5017861089284550e-03 +0.0000000000000000e+00 +9.9999687052823572e-01
3.0000000000000013e+00 +4.6428179134412373e+00 +0.0000000000000000e+00 +2.9999966509773603e+00 -2.5880542034302958e-03 +0.0000000000000000e+00 +9.9999665098211199e-01
3.1000000000000014e+00 +4.6425547946174444e+00 +0.0000000000000000e+00 +3.0999963047881747e+00 -2.6743222673184133e-03 +0.0000000000000000e+00 +9.9999642399381128e-01
3.2000000000000015e+00 +4.6422830489887978e+00 +0.0000000000000000e+00 +3.1999959355280501e+00 -2.7605903004758871e-03 +0.0000000000000000e+00 +9.9999618956333669e-01
3.3000000000000016e+00 +4.6420026765583753e+00 +0.0000000000000000e+00 +3.2999955424527694e+00 -2.8468583028288226e-03 +0.0000000000000000e+00 +9.9999594769069111e-01
3.4000000000000017e+00 +4.6417136773292595e+00 +0.0000000000000000e+00 +3.3999951248181159e+00 -2.9331262743462522e-03 +0.0000000000000000e+00 +9.9999569837587732e-01
3.5000000000000018e+00 +4.6414160513045335e+00 +0.0000000000000000e+00 +3.4999946818798726e+00 -3.0193942150400317e-03 +0.0000000000000000e+00 +9.9999544161889764e-01
3.6000000000000019e+00 +4.6411097984872773e+00 +0.0000000000000000e+00 +3.5999942128938232e+00 -3.1056621249647290e-03 +0.0000000000000000e+00 +9.9999517741975408e-01
3.7000000000000020e+00 +4.6407949188805633e+00 +0.0000000000000000e+00 +3.6999937171157513e+00 -3.1919300042175056e-03 +0.0000000000000000e+00 +9.9999490577844852e-01
3.8000000000000020e+00 +4.6404714124874520e+00 +0.0000000000000000e+00 +3.7999931938014408e+00 -3.2781978529379924e-03 +0.0000000000000000e+00 +9.9999462669498229e-01
3.9000000000000021e+00 +4.6401392793109872e+00 +0.0000000000000000e+00 +3.8999926422066760e+00 -3.3644656713081571e-03 +0.0000000000000000e+00 +9.9999434016935640e-01
4.0000000000000018e+00 +4.6397985193541942e+00 +0.0000000000000000e+00 +3.9999920615872404e+00 -3.4507334595521664e-03 +0.0000000000000000e+00 +9.9999404620157162e-01
4.1000000000000014e+00 +4.6394491326200722e+00 +0.0000000000000000e+00 +4.0999914511989184e+00 -3.5370012179286462e-03 +0.0000000000000000e+00 +9.9999374479162828e-01
4.2000000000000011e+00 +4.6390911191115967e+00 +0.0000000000000000e+00 +4.1999908102974945e+00 -3.6232689466470010e-03 +0.0000000000000000e+00 +9.9999343593952661e-01
4.3000000000000007e+00 +4.6387244788317288e+00 +0.0000000000000000e+00 +4.2999901381387522e+00 -3.7095366457838203e-03 +0.0000000000000000e+00 +9.9999311964526705e-01
4.4000000000000004e+00 +4.6383492117834280e+00 +0.0000000000000000e+00 +4.3999894339784760e+00 -3.7958043152753105e-03 +0.0000000000000000e+00 +9.9999279590885048e-01
4.5000000000000000e+00 +4.6379653179696687e+00 +0.0000000000000000e+00 +4.4999886970724505e+00 -3.8820719549173357e-03 +0.0000000000000000e+00 +9.9999246473027814e-01
4.5999999999999996e+00 +4.6375727973934513e+00 +0.0000000000000000e+00 +4.5999879266764596e+00 -3.9683395643654602e-03 +0.0000000000000000e+00 +9.9999212610955168e-01
4.6999999999999993e+00 +4.6371716500578186e+00 +0.0000000000000000e+00 +4.6999871220462888e+00 -4.0546071431349969e-03 +0.0000000000000000e+00 +9.9999178004667344e-01
4.7999999999999989e+00 +4.6367618759658678e+00 +0.0000000000000000e+00 +4.7999862824377226e+00 -4.1408746906010634e-03 +0.0000000000000000e+00 +9.9999142654164608e-01
4.8999999999999986e+00 +4.6363434751207668e+00 +0.0000000000000000e+00 +4.8999854071065467e+00 -4.2271422059986363e-03 +0.0000000000000000e+00 +9.9999106559447315e-01
4.9999999999999982e+00 +4.6359164475257666e+00 +0.0000000000000000e+00 +4.9999844953085457e+00 -4.3134096884226156e-03 +0.0000000000000000e+00 +9.9999069720515876e-01
5.0999999999999979e+00 +4.6354807931842155e+00 +0.0000000000000000e+00 +5.0999835462995069e+00 -4.3996771368278939e-03 +0.0000000000000000e+00 +9.9999032137370780e-01
5.1999999999999975e+00 +4.6350365120995738e+00 +0.0000000000000000e+00 +5.1999825593352167e+00 -4.4859445500294252e-03 +0.0000000000000000e+00 +9.9998993810012593e-01
5.2999999999999972e+00 +4.6345836042754271e+00 +0.0000000000000000e+00 +5.2999815336714615e+00 -4.5722119267023022e-03 +0.0000000000000000e+00 +9.9998954738441992e-01
5.3999999999999968e+00 +4.6341220697154997e+00 +0.0000000000000000e+00 +5.3999804685640296e+00 -4.6584792653818416e-03 +0.0000000000000000e+00 +9.9998914922659721e-01
5.4999999999999964e+00 +4.6336519084236700e+00 +0.0000000000000000e+00 +5.4999793632687100e+00 -4.7447465644636644e-03 +0.0000000000000000e+00 +9.9998874362666634e-01
5.5999999999999961e+00 +4.6331731204039848e+00 +0.0000000000000000e+00 +5.5999782170412926e+00 -4.8310138222037915e-03 +0.0000000000000000e+00 +9.9998833058463699e-01
5.6999999999999957e+00 +4.6326857056606698e+00 +0.0000000000000000e+00 +5.6999770291375675e+00 -4.9172810367187365e-03 +0.0000000000000000e+00 +9.9998791010051991e-01
5.7999999999999954e+00 +4.6321896641981484e+00 +0.0000000000000000e+00 +5.7999757988133274e+00 -5.0035482059856079e-03 +0.0000000000000000e+00 +9.9998748217432698e-01
5.8999999999999950e+00 +4.6316849960210522e+00 +0.0000000000000000e+00 +5.8999745253243647e+00 -5.0898153278422145e-03 +0.0000000000000000e+00 +9.9998704680607142e-01
5.9999999999999947e+00 +4.6311717011342362e+00 +0.0000000000000000e+00 +5.9999732079264740e+00 -5.1760823999871721e-03 +0.0000000000000000e+00 +9.9998660399576766e-01
6.0999999999999943e+00 +4.6306497795427921e+00 +0.0000000000000000e+00 +6.0999718458754506e+00 -5.2623494199897985e-03 +0.0000000000000000e+00 +9.9998615374343136e-01
6.1999999999999940e+00 +4.6301192312520580e+00 +0.0000000000000000e+00 +6.1999704384270933e+00 -5.3486163853978417e-03 +0.0000000000000000e+00 +9.9998569604907928e-01
6.2999999999999936e+00 +4.6295800562676117e+00 +0.0000000000000000e+00 +6.2999689848372000e+00 -5.4348832938452283e-03 +0.0000000000000000e+00 +9.9998523091272806e-01
6.3999999999999932e+00 +4.6290322545952636e+00 +0.0000000000000000e+00 +6.3999674843615724e+00 -5.5211501430618981e-03 +0.0000000000000000e+00 +9.9998475833439460e-01
6.4999999999999929e+00 +4.6284758262410461e+00 +0.0000000000000000e+00 +6.4999659362560136e+00 -5.6074169308738386e-03 +0.0000000000000000e+00 +9.9998427831409586e-01
6.5999999999999925e+00 +4.6279107712112051e+00 +0.0000000000000000e+00 +6.5999643397763270e+00 -5.6936836552031224e-03 +0.0000000000000000e+00 +9.9998379085184885e-01
6.6999999999999922e+00 +4.6273370895121877e+00 +0.0000000000000000e+00 +6.6999626941783195e+00 -5.7799503140679451e-03 +0.0000000000000000e+00 +9.9998329594767066e-01
6.7999999999999918e+00 +4.6267547811506367e+00 +0.0000000000000000e+00 +6.7999609987177978e+00 -5.8662169055826632e-03 +0.0000000000000000e+00 +9.9998279360157816e-01
6.8999999999999915e+00 +4.6261638461333758e+00 +0.0000000000000000e+00 +6.8999592526505715e+00 -5.9524834279578347e-03 +0.0000000000000000e+00 +9.9998228381358822e-01
6.9999999999999911e+00 +4.6255642844674059e+00 +0.0000000000000000e+00 +6.9999574552324528e+00 -6.0387498795002586e-03 +0.0000000000000000e+00 +9.9998176658371762e-01
7.0999999999999908e+00 +4.6249560961598899e+00 +0.0000000000000000e+00 +7.0999556057192530e+00 -6.1250162586130178e-03 +0.0000000000000000e+00 +9.9998124191198290e-01
7.1999999999999904e+00 +4.6243392812181474e+00 +0.0000000000000000e+00 +7.1999537033667877e+00 -6.2112825637955183e-03 +0.0000000000000000e+00 +9.9998070979840037e-01
7.2999999999999901e+00 +4.6237138396496418e+00 +0.0000000000000000e+00 +7.2999517474308719e+00 -6.2975487936435363e-03 +0.0000000000000000e+00 +9.9998017024298613e-01
7.3999999999999897e+00 +4.6230797714619731e+00 +0.0000000000000000e+00 +7.3999497371673240e+00 -6.3838149468492577e-03 +0.0000000000000000e+00 +9.9997962324575607e-01
7.4999999999999893e+00 +4.6224370766628669e+00 +0.0000000000000000e+00 +7.4999476718319631e+00 -6.4700810222013266e-03 +0.0000000000000000e+00 +9.9997906880672560e-01
7.5999999999999890e+00 +4.6217857552601647e+00 +0.0000000000000000e+00 +7.5999455506806095e+00 -6.5563470185848894e-03 +0.0000000000000000e+00 +9.9997850692590973e-01
7.6999999999999886e+00 +4.6211258072618158e+00 +0.0000000000000000e+00 +7.6999433729690860e+00 -6.6426129349816398e-03 +0.0000000000000000e+00 +9.9997793760332321e-01
7.7999999999999883e+00 +4.6204572326758653e+00 +0.0000000000000000e+00 +7.7999411379532155e+00 -6.7288787704698700e-03 +0.0000000000000000e+00 +9.9997736083898026e-01
7.8999999999999879e+00 +4.6197800315104462e+00 +0.0000000000000000e+00 +7.8999388448888235e+00 -6.8151445242245140e-03 +0.0000000000000000e+00 +9.9997677663289453e-01
7.9999999999999876e+00 +4.6190942037737690e+00 +0.0000000000000000e+00 +7.9999364930317363e+00 -6.9014101955171998e-03 +0.0000000000000000e+00 +9.9997618498507912e-01
8.0999999999999872e+00 +4.6183997494741122e+00 +0.0000000000000000e+00 +8.0999340816377821e+00 -6.9876757837177500e-03 +0.0000000000000000e+00 +9.9997558589554658e-01
8.1999999999999869e+00 +4.6176966686198124e+00 +0.0000000000000000e+00 +8.1999316099627890e+00 -7.0739412883102154e-03 +0.0000000000000000e+00 +9.9997497936430868e-01
8.2999999999999865e+00 +4.6169849612192504e+00 +0.0000000000000000e+00 +8.2999290772625880e+00 -7.1602067089089226e-03 +0.0000000000000000e+00 +9.9997436539137630e-01
8.3999999999999861e+00 +4.6162646272808390e+00 +0.0000000000000000e+00 +8.3999264827930080e+00 -7.2464720452599619e-03 +0.0000000000000000e+00 +9.9997374397675931e-01
8.4999999999999858e+00 +4.6155356668130105e+00 +0.0000000000000000e+00 +8.4999238258098835e+00 -7.3327372972412158e-03 +0.0000000000000000e+00 +9.9997311512046649e-01
8.5999999999999854e+00 +4.6147980798242028e+00 +0.0000000000000000e+00 +8.5999211055690452e+00 -7.4190024648623874e-03 +0.0000000000000000e+00 +9.9997247882250562e-01
8.6999999999999851e+00 +4.6140518663228454e+00 +0.0000000000000000e+00 +8.6999183213263294e+00 -7.5052675482650301e-03 +0.0000000000000000e+00 +9.9997183508288323e-01
8.7999999999999847e+00 +4.6132970263173476e+00 +0.0000000000000000e+00 +8.7999154723375668e+00 -7.5915325477225763e-03 +0.0000000000000000e+00 +9.9997118390160467e-01
8.8999999999999844e+00 +4.6125335598160850e+00 +0.0000000000000000e+00 +8.8999125578585936e+00 -7.6777974636403658e-03 +0.0000000000000000e+00 +9.9997052527867403e-01
8.9999999999999840e+00 +4.6117614668273861e+00 +0.0000000000000000e+00 +8.9999095771452460e+00 -7.7640622965556745e-03 +0.0000000000000000e+00 +9.9996985921409409e-01
9.0999999999999837e+00 +4.6109807473595188e+00 +0.0000000000000000e+00 +9.0999065294533583e+00 -7.8503270471377441e-03 +0.0000000000000000e+00 +9.9996918570786619e-01
9.1999999999999833e+00 +4.6101914014206766e+00 +0.0000000000000000e+00 +9.1999034140387650e+00 -7.9365917161878102e-03 +0.0000000000000000e+00 +9.9996850475999022e-01
9.2999999999999829e+00 +4.6093934290189678e+00 +0.0000000000000000e+00 +9.2999002301573022e+00 -8.0228563046391317e-03 +0.0000000000000000e+00 +9.9996781637046461e-01
9.3999999999999826e+00 +4.6085868301624000e+00 +0.0000000000000000e+00 +9.3998969770648042e+00 -8.1091208135570161e-03 +0.0000000000000000e+00 +9.9996712053928616e-01
9.4999999999999822e+00 +4.6077716048588675e+00 +0.0000000000000000e+00 +9.4998936540171055e+00 -8.1953852441388510e-03 +0.0000000000000000e+00 +9.9996641726645019e-01
9.5999999999999819e+00 +4.6069477531161391e+00 +0.0000000000000000e+00 +9.5998902602700387e+00 -8.2816495977141320e-03 +0.0000000000000000e+00 +9.9996570655195016e-01
9.6999999999999815e+00 +4.6061152749418435e+00 +0.0000000000000000e+00 +9.6998867950794398e+00 -8.3679138757444885e-03 +0.0000000000000000e+00 +9.9996498839577797e-01
9.7999999999999812e+00 +4.6052741703434554e+00 +0.0000000000000000e+00 +9.7998832577011399e+00 -8.4541780798237133e-03 +0.0000000000000000e+00 +9.9996426279792361e-01
9.8999999999999808e+00 +4.6044244393282856e+00 +0.0000000000000000e+00 +9.8998796473909696e+00 -8.5404422116777887e-03 +0.0000000000000000e+00 +9.9996352975837532e-01
9.9999999999999805e+00 +4.6035660819034652e+00 +0.0000000000000000e+00 +9.9998759634047580e+00 -8.6267062731649156e-03 +0.0000000000000000e+00 +9.9996278927711946e-01
1.0099999999999980e+01 +4.6026990980759326e+00 +0.0000000000000000e+00 +1.0099872204998336e+01 -8.7129702662573777e-03 +0.0000000000000000e+00 +9.9996204135414035e-01
1.0199999999999980e+01 +4.6018234878524309e+00 +0.0000000000000000e+00 +1.0199868371427529e+01 -8.7992341928410430e-03 +0.0000000000000000e+00 +9.9996128598942258e-01
1.0299999999999979e+01 +4.6009392512395282e+00 +0.0000000000000000e+00 +1.0299864461948163e+01 -8.8854980545141817e-03 +0.0000000000000000e+00 +9.9996052318295214e-01
1.0399999999999979e+01 +4.6000463882436486e+00 +0.0000000000000000e+00 +1.0399860475816061e+01 -8.9717618525689009e-03 +0.0000000000000000e+00 +9.9995975293471728e-01
1.0499999999999979e+01 +4.5991448988711019e+00 +0.0000000000000000e+00 +1.0499856412287047e+01 -9.0580255879909154e-03 +0.0000000000000000e+00 +9.9995897524470845e-01
1.0599999999999978e+01 +4.5982347831281150e+00 +0.0000000000000000e+00 +1.0599852270616942e+01 -9.1442892614593020e-03 +0.0000000000000000e+00 +9.9995819011291809e-01
1.0699999999999978e+01 +4.5973160410208624e+00 +0.0000000000000000e+00 +1.0699848050061570e+01 -9.2305528733462646e-03 +0.0000000000000000e+00 +9.9995739753934143e-01
1.0799999999999978e+01 +4.5963886725554959e+00 +0.0000000000000000e+00 +1.0799843749876752e+01 -9.3168164237168796e-03 +0.0000000000000000e+00 +9.9995659752397603e-01
1.0899999999999977e+01 +4.5954526777381774e+00 +0.0000000000000000e+00 +1.0899839369318308e+01 -9.4030799123288461e-03 +0.0000000000000000e+00 +9.9995579006682223e-01
1.0999999999999977e+01 +4.5945080565751066e+00 +0.0000000000000000e+00 +1.0999834907642057e+01 -9.4893433386322220e-03 +0.0000000000000000e+00 +9.9995497516788312e-01
1.1099999999999977e+01 +4.5935548090725558e+00 +0.0000000000000000e+00 +1.1099830364103825e+01 -9.5756067017691675e-03 +0.0000000000000000e+00 +9.9995415282716493e-01
1.1199999999999976e+01 +4.5925929352368966e+00 +0.0000000000000000e+00 +1.1199825737959433e+01 -9.6618700005736673e-03 +0.0000000000000000e+00 +9.9995332304467699e-01
1.1299999999999976e+01 +4.5916224350746342e+00 +0.0000000000000000e+00 +1.1299821028464702e+01 -9.7481332335712639e-03 +0.0000000000000000e+00 +9.9995248582043172e-01
1.1399999999999975e+01 +4.5906433085924352e+00 +0.0000000000000000e+00 +1.1399816234875461e+01 -9.8343963989787724e-03 +0.0000000000000000e+00 +9.9995164115444501e-01
1.1499999999999975e+01 +4.5896555557971608e+00 +0.0000000000000000e+00 +1.1499811356447534e+01 -9.9206594947040018e-03 +0.0000000000000000e+00 +9.9995078904673618e-01
1.1599999999999975e+01 +4.5886591766958968e+00 +0.0000000000000000e+00 +1.1599806392436751e+01 -1.0006922518345462e-02 +0.0000000000000000e+00 +9.9994992949732842e-01
1.1699999999999974e+01 +4.5876541712959842e+00 +0.0000000000000000e+00 +1.1699801342098944e+01 -1.0093185467192073e-02 +0.0000000000000000e+00 +9.9994906250624838e-01
1.1799999999999974e+01 +4.5866405396050514e+00 +0.0000000000000000e+00 +1.1799796204689946e+01 -1.0179448338222862e-02 +0.0000000000000000e+00 +9.9994818807352692e-01
