# trajectory
# s[mm] rx[mm] ry[mm] rz[mm] px[rad] py[rad] pz[rad]
0.0000000000000000e+00 +4.6467000000000001e+00 +0.0000000000000000e+00 +0.0000000000000000e+00 +0.0000000000000000e+00 +0.0000000000000000e+00 +1.0000000000000000e+00
1.0000000000000001e-01 +4.6466956856792816e+00 +0.0000000000000000e+00 +9.9999999875910905e-02 -8.6286415278548616e-05 +0.0000000000000000e+00 +9.9999999627732727e-01
2.0000000000000001e-01 +4.6466827427167754e+00 +0.0000000000000000e+00 +1.9999999900728721e-01 -1.7257283561098233e-04 +0.0000000000000000e+00 +9.9999998510930810e-01
3.0000000000000004e-01 +4.6466611711120187e+00 +0.0000000000000000e+00 +2.9999999664959420e-01 -2.5885926016028552e-04 +0.0000000000000000e+00 +9.9999996649594114e-01
4.0000000000000002e-01 +4.6466309708646314e+00 +0.0000000000000000e+00 +3.9999999205829712e-01 -3.4514568807035280e-04 +0.0000000000000000e+00 +9.9999994043722518e-01
5.0000000000000000e-01 +4.6465921419743212e+00 +0.0000000000000000e+00 +4.9999998448886096e-01 -4.3143211846600679e-04 +0.0000000000000000e+00 +9.9999990693315921e-01
5.9999999999999998e-01 +4.6465446844408849e+00 +0.0000000000000000e+00 +5.9999997319675069e-01 -5.1771855045301348e-04 +0.0000000000000000e+00 +9.9999986598374224e-01
6.9999999999999996e-01 +4.6464885982642077e+00 +0.0000000000000000e+00 +6.9999995743743104e-01 -6.0400498311809529e-04 +0.0000000000000000e+00 +9.9999981758897349e-01
7.9999999999999993e-01 +4.6464238834442693e+00 +0.0000000000000000e+00 +7.9999993646636691e-01 -6.9029141552894100e-04 +0.0000000000000000e+00 +9.9999976174885241e-01
8.9999999999999991e-01 +4.6463505399811424e+00 +0.0000000000000000e+00 +8.9999990953902309e-01 -7.7657784673421386e-04 +0.0000000000000000e+00 +9.9999969846337844e-01
9.9999999999999989e-01 +4.6462685678749951e+00 +0.0000000000000000e+00 +9.9999987591086414e-01 -8.6286427576355660e-04 +0.0000000000000000e+00 +9.9999962773255147e-01
1.0999999999999999e+00 +4.6461779671260945e+00 +0.0000000000000000e+00 +1.0999998348373550e+00 -9.4915070162759462e-04 +0.0000000000000000e+00 +9.9999954955637127e-01
1.2000000000000000e+00 +4.6460787377348085e+00 +0.0000000000000000e+00 +1.1999997855739601e+00 -1.0354371233179357e-03 +0.0000000000000000e+00 +9.9999946393483807e-01
1.3000000000000000e+00 +4.6459708797016042e+00 +0.0000000000000000e+00 +1.2999997273761443e+00 -1.1217235398071675e-03 +0.0000000000000000e+00 +9.9999937086795210e-01
1.4000000000000001e+00 +4.6458543930270553e+00 +0.0000000000000000e+00 +1.3999996594993722e+00 -1.2080099500488539e-03 +0.0000000000000000e+00 +9.9999927035571401e-01
1.5000000000000002e+00 +4.6457292777118386e+00 +0.0000000000000000e+00 +1.4999995811991087e+00 -1.2942963529775264e-03 +0.0000000000000000e+00 +9.9999916239812447e-01
1.6000000000000003e+00 +4.6455955337567394e+00 +0.0000000000000000e+00 +1.5999994917308187e+00 -1.3805827475086745e-03 +0.0000000000000000e+00 +9.9999904699518449e-01
1.7000000000000004e+00 +4.6454531611626528e+00 +0.0000000000000000e+00 +1.6999993903499673e+00 -1.4668691325387337e-03 +0.0000000000000000e+00 +9.9999892414689528e-01
1.8000000000000005e+00 +4.6453021599305853e+00 +0.0000000000000000e+00 +1.7999992763120196e+00 -1.5531555069450700e-03 +0.0000000000000000e+00 +9.9999879385325829e-01
1.9000000000000006e+00 +4.6451425300616558e+00 +0.0000000000000000e+00 +1.8999991488724408e+00 -1.6394418695859631e-03 +0.0000000000000000e+00 +9.9999865611427519e-01
2.0000000000000004e+00 +4.6449742715570990e+00 +0.0000000000000000e+00 +1.9999990072866964e+00 -1.7257282193005859e-03 +0.0000000000000000e+00 +9.9999851092994796e-01
2.1000000000000005e+00 +4.6447973844182657e+00 +0.0000000000000000e+00 +2.0999988508102523e+00 -1.8120145549116121e-03 +0.0000000000000000e+00 +9.9999835830027883e-01
2.2000000000000006e+00 +4.6446118686466251e+00 +0.0000000000000000e+00 +2.1999986786985741e+00 -1.8983008752541256e-03 +0.0000000000000000e+00 +9.9999819822527036e-01
2.3000000000000007e+00 +4.6444177242437608e+00 +0.0000000000000000e+00 +2.2999984902071282e+00 -1.9845871792045573e-03 +0.0000000000000000e+00 +9.9999803070492510e-01
2.4000000000000008e+00 +4.6442149512113664e+00 +0.0000000000000000e+00 +2.3999982845913812e+00 -2.0708734656833413e-03 +0.0000000000000000e+00 +9.9999785573924571e-01
2.5000000000000009e+00 +4.6440035495512415e+00 +0.0000000000000000e+00 +2.4999980611067998e+00 -2.1571597336549442e-03 +0.0000000000000000e+00 +9.9999767332823508e-01
2.6000000000000010e+00 +4.6437835192652859e+00 +0.0000000000000000e+00 +2.5999978190088506e+00 -2.2434459821278987e-03 +0.0000000000000000e+00 +9.9999748347189621e-01
2.7000000000000011e+00 +4.6435548603554979e+00 +0.0000000000000000e+00 +2.6999975575530013e+00 -2.3297322101548403e-03 +0.0000000000000000e+00 +9.9999728617023209e-01
2.8000000000000012e+00 +4.6433175728239666e+00 +0.0000000000000000e+00 +2.7999972759947194e+00 -2.4160184168325475e-03 +0.0000000000000000e+00 +9.9999708142324573e-01
2.9000000000000012e+00 +4.6430716566728716e+00 +0.0000000000000000e+00 +2.8999969735894728e+00 -2.5023046013019851e-03 +0.0000000000000000e+00 +9.9999686923094033e-01
3.0000000000000013e+00 +4.6428171119044741e+00 +0.0000000000000000e+00 +2.9999966495927302e+00 -2.5885907627483519e-03 +0.0000000000000000e+00 +9.9999664959331891e-01
3.1000000000000014e+00 +4.6425539385211154e+00 +0.0000000000000000e+00 +3.0999963032599598e+00 -2.6748769004011296e-03 +0.0000000000000000e+00 +9.9999642251038467e-01
3.2000000000000015e+00 +4.6422821365252114e+00 +0.0000000000000000e+00 +3.1999959338466302e+00 -2.7611630135341383e-03 +0.0000000000000000e+00 +9.9999618798214063e-01
3.3000000000000016e+00 +4.6420017059192489e+00 +0.0000000000000000e+00 +3.2999955406082111e+00 -2.8474491014655922e-03 +0.0000000000000000e+00 +9.9999594600858988e-01
3.4000000000000017e+00 +4.6417126467057797e+00 +0.0000000000000000e+00 +3.3999951228001715e+00 -2.9337351635581616e-03 +0.0000000000000000e+00 +9.9999569658973542e-01
3.5000000000000018e+00 +4.6414149588874185e+00 +0.0000000000000000e+00 +3.4999946796779815e+00 -3.0200211992190361e-03 +0.0000000000000000e+00 +9.9999543972558014e-01
3.6000000000000019e+00 +4.6411086424668353e+00 +0.0000000000000000e+00 +3.5999942104971110e+00 -3.1063072078999919e-03 +0.0000000000000000e+00 +9.9999517541612681e-01
3.7000000000000020e+00 +4.6407936974467541e+00 +0.0000000000000000e+00 +3.6999937145130302e+00 -3.1925931890974630e-03 +0.0000000000000000e+00 +9.9999490366137822e-01
3.8000000000000020e+00 +4.6404701238299468e+00 +0.0000000000000000e+00 +3.7999931909812101e+00 -3.2788791423526147e-03 +0.0000000000000000e+00 +9.9999462446133680e-01
3.9000000000000021e+00 +4.6401379216192291e+00 +0.0000000000000000e+00 +3.8999926391571211e+00 -3.3651650672514221e-03 +0.0000000000000000e+00 +9.9999433781600500e-01
4.0000000000000018e+00 +4.6397970908174546e+00 +0.0000000000000000e+00 +3.9999920582962347e+00 -3.4514509634247506e-03 +0.0000000000000000e+00 +9.9999404372538503e-01
4.1000000000000014e+00 +4.6394476314275126e+00 +0.0000000000000000e+00 +4.0999914476540216e+00 -3.5377368305428356e-03 +0.0000000000000000e+00 +9.9999374218947890e-01
4.2000000000000011e+00 +4.6390895434523260e+00 +0.0000000000000000e+00 +4.1999908064859541e+00 -3.6240226682536856e-03 +0.0000000000000000e+00 +9.9999343320828871e-01
4.3000000000000007e+00 +4.6387228268948562e+00 +0.0000000000000000e+00 +4.2999901340475031e+00 -3.7103084761213774e-03 +0.0000000000000000e+00 +9.9999311678181679e-01
4.4000000000000004e+00 +4.6383474817581138e+00 +0.0000000000000000e+00 +4.3999894295941413e+00 -3.7965942536203564e-03 +0.0000000000000000e+00 +9.9999279291006571e-01
4.5000000000000000e+00 +4.6379635080451651e+00 +0.0000000000000000e+00 +4.4999886923813408e+00 -3.8828800001353375e-03 +0.0000000000000000e+00 +9.9999246159303856e-01
4.5999999999999996e+00 +4.6375709057591434e+00 +0.0000000000000000e+00 +4.5999879216645736e+00 -3.9691657149611946e-03 +0.0000000000000000e+00 +9.9999212283073879e-01
4.6999999999999993e+00 +4.6371696749032560e+00 +0.0000000000000000e+00 +4.6999871166993126e+00 -4.0554513973028476e-03 +0.0000000000000000e+00 +9.9999177662317018e-01
4.7999999999999989e+00 +4.6367598154807954e+00 +0.0000000000000000e+00 +4.7999862767410315e+00 -4.1417370462751369e-03 +0.0000000000000000e+00 +9.9999142297033716e-01
4.8999999999999986e+00 +4.6363413274951464e+00 +0.0000000000000000e+00 +4.8999854010452042e+00 -4.2280226609026960e-03 +0.0000000000000000e+00 +9.9999106187224451e-01
4.9999999999999982e+00 +4.6359142109497951e+00 +0.0000000000000000e+00 +4.9999844888673053e+00 -4.3143082401198123e-03 +0.0000000000000000e+00 +9.9999069332889767e-01
5.0999999999999979e+00 +4.6354784658483403e+00 +0.0000000000000000e+00 +5.0999835394628086e+00 -4.4005937827702830e-03 +0.0000000000000000e+00 +9.9999031734030264e-01
5.1999999999999975e+00 +4.6350340921945010e+00 +0.0000000000000000e+00 +5.1999825520871905e+00 -4.4868792876072627e-03 +0.0000000000000000e+00 +9.9998993390646618e-01
5.2999999999999972e+00 +4.6345810899921238e+00 +0.0000000000000000e+00 +5.2999815259959275e+00 -4.5731647532931061e-03 +0.0000000000000000e+00 +9.9998954302739551e-01
5.3999999999999968e+00 +4.6341194592451949e+00 +0.0000000000000000e+00 +5.3999804604444961e+00 -4.6594501783991998e-03 +0.0000000000000000e+00 +9.9998914470309885e-01
5.4999999999999964e+00 +4.6336491999578469e+00 +0.0000000000000000e+00 +5.4999793546883735e+00 -4.7457355614057900e-03 +0.0000000000000000e+00 +9.9998873893358486e-01
5.5999999999999961e+00 +4.6331703121343706e+00 +0.0000000000000000e+00 +5.5999782079830389e+00 -4.8320209007017998e-03 +0.0000000000000000e+00 +9.9998832571886320e-01
5.6999999999999957e+00 +4.6326827957792203e+00 +0.0000000000000000e+00 +5.6999770195839723e+00 -4.9183061945846434e-03 +0.0000000000000000e+00 +9.9998790505894442e-01
5.7999999999999954e+00 +4.6321866508970269e+00 +0.0000000000000000e+00 +5.7999757887466545e+00 -5.0045914412600303e-03 +0.0000000000000000e+00 +9.9998747695383972e-01
5.8999999999999950e+00 +4.6316818774926043e+00 +0.0000000000000000e+00 +5.8999745147265674e+00 -5.0908766388417627e-03 +0.0000000000000000e+00 +9.9998704140356143e-01
5.9999999999999947e+00 +4.6311684755709601e+00 +0.0000000000000000e+00 +5.9999731967791945e+00 -5.1771617853515264e-03 +0.0000000000000000e+00 +9.9998659840812276e-01
6.0999999999999943e+00 +4.6306464451373044e+00 +0.0000000000000000e+00 +6.0999718341600202e+00 -5.2634468787279010e-03 +0.0000000000000000e+00 +9.9998614796753793e-01
6.1999999999999940e+00 +4.6301157861970532e+00 +0.0000000000000000e+00 +6.1999704261245308e+00 -5.3497319169277637e-03 +0.0000000000000000e+00 +9.9998569008182159e-01
6.2999999999999936e+00 +4.6295764987558217e+00 +0.0000000000000000e+00 +6.2999689719282141e+00 -5.4360168980279299e-03 +0.0000000000000000e+00 +9.9998522475098817e-01
6.3999999999999932e+00 +4.6290285828194104e+00 +0.0000000000000000e+00 +6.3999674708265584e+00 -5.5223018202344917e-03 +0.0000000000000000e+00 +9.9998475197505199e-01
6.4999999999999929e+00 +4.6284720383937934e+00 +0.0000000000000000e+00 +6.4999659220750550e+00 -5.6085866818829247e-03 +0.0000000000000000e+00 +9.9998427175402704e-01
6.5999999999999925e+00 +4.6279068654851034e+00 +0.0000000000000000e+00 +6.5999643249291946e+00 -5.6948714814382007e-03 +0.0000000000000000e+00 +9.9998378408792710e-01
6.6999999999999922e+00 +4.6273330640996218e+00 +0.0000000000000000e+00 +6.6999626786444715e+00 -5.7811562174949014e-03 +0.0000000000000000e+00 +9.9998328897676536e-01
6.7999999999999918e+00 +4.6267506342437636e+00 +0.0000000000000000e+00 +6.7999609824763798e+00 -5.8674408887773441e-03 +0.0000000000000000e+00 +9.9998278642055471e-01
6.8999999999999915e+00 +4.6261595759240643e+00 +0.0000000000000000e+00 +6.8999592356804147e+00 -5.9537254941397109e-03 +0.0000000000000000e+00 +9.9998227641930759e-01
6.9999999999999911e+00 +4.6255598891471674e+00 +0.0000000000000000e+00 +6.9999574375120739e+00 -6.0400100325661808e-03 +0.0000000000000000e+00 +9.9998175897303576e-01
7.0999999999999908e+00 +4.6249515739198124e+00 +0.0000000000000000e+00 +7.0999555872268552e+00 -6.1262945031710725e-03 +0.0000000000000000e+00 +9.9998123408175044e-01
7.1999999999999904e+00 +4.6243346302488195e+00 +0.0000000000000000e+00 +7.1999536840802572e+00 -6.2125789051989885e-03 +0.0000000000000000e+00 +9.9998070174546205e-01
7.2999999999999901e+00 +4.6237090581410794e+00 +0.0000000000000000e+00 +7.2999517273277812e+00 -6.2988632380249696e-03 +0.0000000000000000e+00 +9.9998016196418049e-01
7.3999999999999897e+00 +4.6230748576035383e+00 +0.0000000000000000e+00 +7.3999497162249277e+00 -6.3851475011546506e-03 +0.0000000000000000e+00 +9.9997961473791475e-01
7.4999999999999893e+00 +4.6224320286431846e+00 +0.0000000000000000e+00 +7.4999476500271989e+00 -6.4714316942244251e-03 +0.0000000000000000e+00 +9.9997906006667303e-01
7.5999999999999890e+00 +4.6217805712670366e+00 +0.0000000000000000e+00 +7.5999455279900969e+00 -6.5577158170016126e-03 +0.0000000000000000e+00 +9.9997849795046256e-01
7.6999999999999886e+00 +4.6211204854821304e+00 +0.0000000000000000e+00 +7.6999433493691258e+00 -6.6439998693846366e-03 +0.0000000000000000e+00 +9.9997792838928967e-01
7.7999999999999883e+00 +4.6204517712955049e+00 +0.0000000000000000e+00 +7.7999411134197896e+00 -6.7302838514032024e-03 +0.0000000000000000e+00 +9.9997735138315968e-01
7.8999999999999879e+00 +4.6197744287141900e+00 +0.0000000000000000e+00 +7.8999388193975930e+00 -6.8165677632184840e-03 +0.0000000000000000e+00 +9.9997676693207682e-01
7.9999999999999876e+00 +4.6190884577451916e+00 +0.0000000000000000e+00 +7.9999364665580401e+00 -6.9028516051233184e-03 +0.0000000000000000e+00 +9.9997617503604419e-01
8.0999999999999872e+00 +4.6183938583954820e+00 +0.0000000000000000e+00 +8.0999340541566376e+00 -6.9891353775307554e-03 +0.0000000000000000e+00 +9.9997557569506379e-01
8.1999999999999869e+00 +4.6176906306719889e+00 +0.0000000000000000e+00 +8.1999315814488885e+00 -7.0754190808459041e-03 +0.0000000000000000e+00 +9.9997496890913729e-01
8.2999999999999865e+00 +4.6169787745816073e+00 +0.0000000000000000e+00 +8.2999290476903003e+00 -7.1617027153374861e-03 +0.0000000000000000e+00 +9.9997435467826712e-01
8.3999999999999861e+00 +4.6162582901312117e+00 +0.0000000000000000e+00 +8.3999264521363770e+00 -7.2479862811261220e-03 +0.0000000000000000e+00 +9.9997373300245651e-01
8.4999999999999858e+00 +4.6155291773276730e+00 +0.0000000000000000e+00 +8.4999237940426262e+00 -7.3342697781843226e-03 +0.0000000000000000e+00 +9.9997310388170957e-01
8.5999999999999854e+00 +4.6147914361778719e+00 +0.0000000000000000e+00 +8.5999210726645536e+00 -7.4205532063364747e-03 +0.0000000000000000e+00 +9.9997246731603140e-01
8.6999999999999851e+00 +4.6140450666887132e+00 +0.0000000000000000e+00 +8.6999182872576668e+00 -7.5068365652588278e-03 +0.0000000000000000e+00 +9.9997182330542800e-01
8.7999999999999847e+00 +4.6132900688671432e+00 +0.0000000000000000e+00 +8.7999154370774750e+00 -7.5931198544794843e-03 +0.0000000000000000e+00 +9.9997117184990647e-01
8.8999999999999844e+00 +4.6125264427201609e+00 +0.0000000000000000e+00 +8.8999125213794859e+00 -7.6794030733783819e-03 +0.0000000000000000e+00 +9.9997051294947503e-01
8.9999999999999840e+00 +4.6117541882548370e+00 +0.0000000000000000e+00 +8.9999095394192068e+00 -7.7656862211872802e-03 +0.0000000000000000e+00 +9.9996984660414323e-01
9.0999999999999837e+00 +4.6109733054783240e+00 +0.0000000000000000e+00 +9.0999064904521507e+00 -7.8519692969897456e-03 +0.0000000000000000e+00 +9.9996917281392173e-01
9.1999999999999833e+00 +4.6101837943978747e+00 +0.0000000000000000e+00 +9.1999033737338287e+00 -7.9382522997211349e-03 +0.0000000000000000e+00 +9.9996849157882250e-01
9.2999999999999829e+00 +4.6093856550208558e+00 +0.0000000000000000e+00 +9.2999001885197536e+00 -8.0245352281685788e-03 +0.0000000000000000e+00 +9.9996780289885911e-01
9.3999999999999826e+00 +4.6085788873547626e+00 +0.0000000000000000e+00 +9.3998969340654401e+00 -8.1108180809709648e-03 +0.0000000000000000e+00 +9.9996710677404632e-01
9.4999999999999822e+00 +4.6077634914072334e+00 +0.0000000000000000e+00 +9.4998936096264028e+00 -8.1971008566189205e-03 +0.0000000000000000e+00 +9.9996640320440067e-01
9.5999999999999819e+00 +4.6069394671860655e+00 +0.0000000000000000e+00 +9.5998902144581599e+00 -8.2833835534547942e-03 +0.0000000000000000e+00 +9.9996569218994003e-01
9.6999999999999815e+00 +4.6061068146992294e+00 +0.0000000000000000e+00 +9.6998867478162314e+00 -8.3696661696726384e-03 +0.0000000000000000e+00 +9.9996497373068416e-01
9.7999999999999812e+00 +4.6052655339548831e+00 +0.0000000000000000e+00 +9.7998832089561372e+00 -8.4559487033181863e-03 +0.0000000000000000e+00 +9.9996424782665427e-01
9.8999999999999808e+00 +4.6044156249613879e+00 +0.0000000000000000e+00 +9.8998795971334026e+00 -8.5422311522888369e-03 +0.0000000000000000e+00 +9.9996351447787357e-01
9.9999999999999805e+00 +4.6035570877273226e+00 +0.0000000000000000e+00 +9.9998759116035547e+00 -8.6285135143336304e-03 +0.0000000000000000e+00 +9.9996277368436703e-01
1.0099999999999980e+01 +4.6026899222614981e+00 +0.0000000000000000e+00 +1.0099872151622121e+01 -8.7147957870668570e-03 +0.0000000000000000e+00 +9.9996202544616131e-01
1.0199999999999980e+01 +4.6018141285729657e+00 +0.0000000000000000e+00 +1.0199868316444631e+01 -8.8010779681184440e-03 +0.0000000000000000e+00 +9.9996126976328370e-01
1.0299999999999979e+01 +4.6009297066710042e+00 +0.0000000000000000e+00 +1.0299864405326622e+01 -8.8873600552847494e-03 +0.0000000000000000e+00 +9.9996050663576075e-01
1.0399999999999979e+01 +4.6000366565651056e+00 +0.0000000000000000e+00 +1.0399860417523628e+01 -8.9736420465422774e-03 +0.0000000000000000e+00 +9.9995973606361777e-01
1.0499999999999979e+01 +4.5991349782649547e+00 +0.0000000000000000e+00 +1.0499856352291191e+01 -9.0599239400476379e-03 +0.0000000000000000e+00 +9.9995895804687907e-01
1.0599999999999978e+01 +4.5982246717804109e+00 +0.0000000000000000e+00 +1.0599852208884851e+01 -9.1462057341375053e-03 +0.0000000000000000e+00 +9.9995817258556785e-01
1.0699999999999978e+01 +4.5973057371214914e+00 +0.0000000000000000e+00 +1.0699847986560153e+01 -9.2324874273285677e-03 +0.0000000000000000e+00 +9.9995737967970599e-01
1.0799999999999978e+01 +4.5963781742983523e+00 +0.0000000000000000e+00 +1.0799843684572641e+01 -9.3187690183174892e-03 +0.0000000000000000e+00 +9.9995657932931403e-01
1.0899999999999977e+01 +4.5954419833212725e+00 +0.0000000000000000e+00 +1.0899839302177865e+01 -9.4050505059808526e-03 +0.0000000000000000e+00 +9.9995577153441118e-01
1.0999999999999977e+01 +4.5944971642006323e+00 +0.0000000000000000e+00 +1.0999834838631374e+01 -9.4913318893751139e-03 +0.0000000000000000e+00 +9.9995495629501496e-01
1.1099999999999977e+01 +4.5935437169468987e+00 +0.0000000000000000e+00 +1.1099830293188718e+01 -9.5776131677365525e-03 +0.0000000000000000e+00 +9.9995413361114160e-01
1.1199999999999976e+01 +4.5925816415706056e+00 +0.0000000000000000e+00 +1.1199825665105452e+01 -9.6638943404812154e-03 +0.0000000000000000e+00 +9.9995330348280542e-01
1.1299999999999976e+01 +4.5916109380823364e+00 +0.0000000000000000e+00 +1.1299820953637131e+01 -9.7501754072048651e-03 +0.0000000000000000e+00 +9.9995246591001929e-01
1.1399999999999975e+01 +4.5906316064927060e+00 +0.0000000000000000e+00 +1.1399816158039307e+01 -9.8364563676829227e-03 +0.0000000000000000e+00 +9.9995162089279410e-01
1.1499999999999975e+01 +4.5896436468123429e+00 +0.0000000000000000e+00 +1.1499811277567542e+01 -9.9227372218704101e-03 +0.0000000000000000e+00 +9.9995076843113895e-01
1.1599999999999975e+01 +4.5886470590518709e+00 +0.0000000000000000e+00 +1.1599806311477389e+01 -1.0009017969901890e-02 +0.0000000000000000e+00 +9.9994990852506094e-01
1.1699999999999974e+01 +4.5876418432218911e+00 +0.0000000000000000e+00 +1.1699801259024406e+01 -1.0095298612091406e-02 +0.0000000000000000e+00 +9.9994904117456518e-01
1.1799999999999974e+01 +4.5866279993329648e+00 +0.0000000000000000e+00 +1.1799796119464155e+01 -1.0181579148932422e-02 +0.0000000000000000e+00 +9.9994816637965467e-01
