# field on trajectory
# s[mm] rx[mm] ry[mm] rz[mm] bx[T] by[T] bz[T]
0.0000000000000000e+00 +4.6467000000000001e+00 +0.0000000000000000e+00 +0.0000000000000000e+00 +2.3244400174694986e-02 -4.3348108856397999e-01 -4.4803311494431555e-03
1.0000000000000001e-01 +4.6466956848234204e+00 +0.0000000000000000e+00 +9.9999999875861667e-02 +2.3244432447239609e-02 -4.3348109229840770e-01 -4.4803184832444250e-03
2.0000000000000001e-01 +4.6466827392936585e+00 +0.0000000000000000e+00 +1.9999999900689336e-01 +2.3244465762838666e-02 -4.3348109761219333e-01 -4.4803065938127775e-03
3.0000000000000004e-01 +4.6466611634107053e+00 +0.0000000000000000e+00 +2.9999999664826515e-01 +2.3244499970059219e-02 -4.3348110427305170e-01 -4.4802953830660672e-03
4.0000000000000002e-01 +4.6466309571745903e+00 +0.0000000000000000e+00 +3.9999999205514697e-01 +2.3244534917373098e-02 -4.3348111204889200e-01 -4.4802847528322386e-03
5.0000000000000000e-01 +4.6465921205853826e+00 +0.0000000000000000e+00 +4.9999998448270877e-01 +2.3244570453189582e-02 -4.3348112070782757e-01 -4.4802746048591517e-03
5.9999999999999998e-01 +4.6465446536432005e+00 +0.0000000000000000e+00 +5.9999997318612053e-01 +2.3244606425888249e-02 -4.3348113001818622e-01 -4.4802648408244061e-03
6.9999999999999996e-01 +4.6464885563482117e+00 +0.0000000000000000e+00 +6.9999995742055221e-01 +2.3244642683851728e-02 -4.3348113974851965e-01 -4.4802553623451849e-03
7.9999999999999993e-01 +4.6464238287006419e+00 +0.0000000000000000e+00 +7.9999993644117362e-01 +2.3244679075498507e-02 -4.3348114966761381e-01 -4.4802460709880759e-03
8.9999999999999991e-01 +4.6463504707007752e+00 +0.0000000000000000e+00 +8.9999990950315467e-01 +2.3244715449315660e-02 -4.3348115954449867e-01 -4.4802368682789204e-03
9.9999999999999989e-01 +4.6462684823489617e+00 +0.0000000000000000e+00 +9.9999987586166528e-01 +2.3244751653891640e-02 -4.3348116914845769e-01 -4.4802276557126359e-03
1.0999999999999999e+00 +4.6461778636456215e+00 +0.0000000000000000e+00 +1.0999998347718754e+00 +2.3244787537949049e-02 -4.3348117824903865e-01 -4.4802183347630743e-03
1.2000000000000000e+00 +4.6460786145912483e+00 +0.0000000000000000e+00 +1.1999997854889546e+00 +2.3244822950377386e-02 -4.3348118661606289e-01 -4.4802088068928540e-03
1.3000000000000000e+00 +4.6459707351864159e+00 +0.0000000000000000e+00 +1.2999997272680730e+00 +2.3244857740265787e-02 -4.3348119401963514e-01 -4.4801989735632122e-03
1.4000000000000001e+00 +4.6458542254317807e+00 +0.0000000000000000e+00 +1.3999996593644006e+00 +2.3244891756935771e-02 -4.3348120023015402e-01 -4.4801887362438822e-03
1.5000000000000002e+00 +4.6457290853280870e+00 +0.0000000000000000e+00 +1.4999995810331075e+00 +2.3244924849974008e-02 -4.3348120501832121e-01 -4.4801779964229269e-03
1.6000000000000003e+00 +4.6455953148761715e+00 +0.0000000000000000e+00 +1.5999994915293638e+00 +2.3244956869264984e-02 -4.3348120815515179e-01 -4.4801666556166320e-03
1.7000000000000004e+00 +4.6454529140769694e+00 +0.0000000000000000e+00 +1.6999993901083397e+00 +2.3244987665023767e-02 -4.3348120941198387e-01 -4.4801546153793673e-03
1.8000000000000005e+00 +4.6453018829315154e+00 +0.0000000000000000e+00 +1.7999992760252055e+00 +2.3245017087828661e-02 -4.3348120856048822e-01 -4.4801417773134905e-03
1.9000000000000006e+00 +4.6451422214409526e+00 +0.0000000000000000e+00 +1.8999991485351317e+00 +2.3245044988653953e-02 -4.3348120537267881e-01 -4.4801280430792284e-03
2.0000000000000004e+00 +4.6449739296065342e+00 +0.0000000000000000e+00 +1.9999990068932891e+00 +2.3245071218902572e-02 -4.3348119962092174e-01 -4.4801133144045909e-03
2.1000000000000005e+00 +4.6447970074296281e+00 +0.0000000000000000e+00 +2.0999988503548486e+00 +2.3245095691167499e-02 -4.3348119110010530e-01 -4.4800975219480349e-03
2.2000000000000006e+00 +4.6446114549117228e+00 +0.0000000000000000e+00 +2.1999986781749814e+00 +2.3245118561269613e-02 -4.3348117969395922e-01 -4.4800807118608637e-03
2.3000000000000007e+00 +4.6444172720544268e+00 +0.0000000000000000e+00 +2.2999984896088588e+00 +2.3245140045740735e-02 -4.3348116530825337e-01 -4.4800629592196941e-03
2.4000000000000008e+00 +4.6442144588594729e+00 +0.0000000000000000e+00 +2.3999982839116525e+00 +2.3245160361014351e-02 -4.3348114784854586e-01 -4.4800443391765114e-03
2.5000000000000009e+00 +4.6440030153287202e+00 +0.0000000000000000e+00 +2.4999980603385343e+00 +2.3245179723392621e-02 -4.3348112722013243e-01 -4.4800249269653179e-03
2.6000000000000010e+00 +4.6437829414641536e+00 +0.0000000000000000e+00 +2.5999978181446770e+00 +2.3245198349013309e-02 -4.3348110332799600e-01 -4.4800047979088068e-03
2.7000000000000011e+00 +4.6435542372678889e+00 +0.0000000000000000e+00 +2.6999975565852532e+00 +2.3245216453816771e-02 -4.3348107607675601e-01 -4.4799840274249740e-03
2.8000000000000012e+00 +4.6433169027421712e+00 +0.0000000000000000e+00 +2.7999972749154365e+00 +2.3245234253512971e-02 -4.3348104537061832e-01 -4.4799626910337524e-03
2.9000000000000012e+00 +4.6430709378893811e+00 +0.0000000000000000e+00 +2.8999969723904004e+00 +2.3245251963548479e-02 -4.3348101111332366e-01 -4.4799408643636318e-03
3.0000000000000013e+00 +4.6428163427120319e+00 +0.0000000000000000e+00 +2.9999966482653191e+00 +2.3245269799073470e-02 -4.3348097320809803e-01 -4.4799186231582492e-03
3.1000000000000014e+00 +4.6425531172127750e+00 +0.0000000000000000e+00 +3.0999963017953669e+00 +2.3245287974908799e-02 -4.3348093155760203e-01 -4.4798960432829767e-03
3.2000000000000015e+00 +4.6422812613944000e+00 +0.0000000000000000e+00 +3.1999959322357197e+00 +2.3245306705513006e-02 -4.3348088606387997e-01 -4.4798732007314893e-03
3.3000000000000016e+00 +4.6420007752598380e+00 +0.0000000000000000e+00 +3.2999955388415527e+00 +2.3245326204949415e-02 -4.3348083662830933e-01 -4.4798501716323130e-03
3.4000000000000017e+00 +4.6417116588121630e+00 +0.0000000000000000e+00 +3.3999951208680432e+00 +2.3245346686853158e-02 -4.3348078315155048e-01 -4.4798270322553724e-03
3.5000000000000018e+00 +4.6414139120545927e+00 +0.0000000000000000e+00 +3.4999946775703679e+00 +2.3245368364398330e-02 -4.3348072553349609e-01 -4.4798038590184936e-03
3.6000000000000019e+00 +4.6411075349904918e+00 +0.0000000000000000e+00 +3.5999942082037046e+00 +2.3245391450265104e-02 -4.3348066367322086e-01 -4.4797807284939059e-03
3.7000000000000020e+00 +4.6407925276233746e+00 +0.0000000000000000e+00 +3.6999937120232325e+00 +2.3245416156606788e-02 -4.3348059746892958e-01 -4.4797577174147136e-03
3.8000000000000020e+00 +4.6404688899569058e+00 +0.0000000000000000e+00 +3.7999931882841307e+00 +2.3245442695017080e-02 -4.3348052681790888e-01 -4.4797349026813593e-03
3.9000000000000021e+00 +4.6401366219949018e+00 +0.0000000000000000e+00 +3.8999926362415795e+00 +2.3245471276497180e-02 -4.3348045161647480e-01 -4.4797123613680451e-03
4.0000000000000018e+00 +4.6397957237413356e+00 +0.0000000000000000e+00 +3.9999920551507602e+00 +2.3245502111423021e-02 -4.3348037175992332e-01 -4.4796901707291501e-03
4.1000000000000014e+00 +4.6394461952003363e+00 +0.0000000000000000e+00 +4.0999914442668546e+00 +2.3245535344776674e-02 -4.3348028721165777e-01 -4.4796683822290930e-03
4.2000000000000011e+00 +4.6390880363761902e+00 +0.0000000000000000e+00 +4.1999908028450461e+00 +2.3245570862102893e-02 -4.3348019821108952e-01 -4.4796469434655525e-03
4.3000000000000007e+00 +4.6387212472733355e+00 +0.0000000000000000e+00 +4.2999901301405190e+00 +2.3245608484187788e-02 -4.3348010506665741e-01 -4.4796257758817747e-03
4.4000000000000004e+00 +4.6383458278963587e+00 +0.0000000000000000e+00 +4.3999894254084584e+00 +2.3245648031901600e-02 -4.3348000808671278e-01 -4.4796048007077604e-03
4.5000000000000000e+00 +4.6379617782499869e+00 +0.0000000000000000e+00 +4.4999886879040503e+00 +2.3245689326212397e-02 -4.3347990757953220e-01 -4.4795839389436560e-03
4.5999999999999996e+00 +4.6375690983390800e+00 +0.0000000000000000e+00 +4.5999879168824815e+00 +2.3245732188199791e-02 -4.3347980385333068e-01 -4.4795631113431541e-03
4.6999999999999993e+00 +4.6371677881686280e+00 +0.0000000000000000e+00 +4.6999871115989400e+00 +2.3245776439068635e-02 -4.3347969721627350e-01 -4.4795422383969241e-03
4.7999999999999989e+00 +4.6367578477437430e+00 +0.0000000000000000e+00 +4.7999862713086152e+00 +2.3245821900162725e-02 -4.3347958797649028e-01 -4.4795212403160745e-03
4.8999999999999986e+00 +4.6363392770696521e+00 +0.0000000000000000e+00 +4.8999853952666976e+00 +2.3245868392978538e-02 -4.3347947644208690e-01 -4.4795000370156284e-03
4.9999999999999982e+00 +4.6359120761516932e+00 +0.0000000000000000e+00 +4.9999844827283777e+00 +2.3245915739178811e-02 -4.3347936292115891e-01 -4.4794785480980343e-03
5.0999999999999979e+00 +4.6354762449953073e+00 +0.0000000000000000e+00 +5.0999835329488485e+00 +2.3245963760606309e-02 -4.3347924772180413e-01 -4.4794566928366992e-03
5.1999999999999975e+00 +4.6350317836060340e+00 +0.0000000000000000e+00 +5.1999825451833033e+00 +2.3246012279297408e-02 -4.3347913115213610e-01 -4.4794343901595540e-03
5.2999999999999972e+00 +4.6345786919895042e+00 +0.0000000000000000e+00 +5.2999815186869359e+00 +2.3246061117495803e-02 -4.3347901352029616e-01 -4.4794115586326531e-03
5.3999999999999968e+00 +4.6341169701514335e+00 +0.0000000000000000e+00 +5.3999804527149413e+00 +2.3246110097666060e-02 -4.3347889513446752e-01 -4.4793881164437842e-03
5.4999999999999964e+00 +4.6336466180976181e+00 +0.0000000000000000e+00 +5.4999793465225162e+00 +2.3246159042507309e-02 -4.3347877630288784e-01 -4.4793639813861487e-03
5.5999999999999961e+00 +4.6331676358339262e+00 +0.0000000000000000e+00 +5.5999781993648572e+00 +2.3246207774966846e-02 -4.3347865733386254e-01 -4.4793390708420299e-03
5.6999999999999957e+00 +4.6326800233662935e+00 +0.0000000000000000e+00 +5.6999770104971628e+00 +2.3246256118253674e-02 -4.3347853853577756e-01 -4.4793133017665358e-03
5.7999999999999954e+00 +4.6321837807007160e+00 +0.0000000000000000e+00 +5.7999757791746323e+00 +2.3246303895852111e-02 -4.3347842021711314e-01 -4.4792865906713572e-03
5.8999999999999950e+00 +4.6316789078432450e+00 +0.0000000000000000e+00 +5.8999745046524650e+00 +2.3246350931535379e-02 -4.3347830268645676e-01 -4.4792588536085561e-03
5.9999999999999947e+00 +4.6311654047999813e+00 +0.0000000000000000e+00 +5.9999731861858621e+00 +2.3246397049379128e-02 -4.3347818625251661e-01 -4.4792300061544180e-03
6.0999999999999943e+00 +4.6306432715770667e+00 +0.0000000000000000e+00 +6.0999718230300246e+00 +2.3246442105603785e-02 -4.3347807117446102e-01 -4.4791999941438546e-03
6.1999999999999940e+00 +4.6301125081806811e+00 +0.0000000000000000e+00 +6.1999704144401555e+00 +2.3246486084131934e-02 -4.3347795751275814e-01 -4.4791688862456719e-03
6.2999999999999936e+00 +4.6295731146170400e+00 +0.0000000000000000e+00 +6.2999689596714568e+00 +2.3246529000982646e-02 -4.3347784527829619e-01 -4.4791367820798357e-03
6.3999999999999932e+00 +4.6290250908923962e+00 +0.0000000000000000e+00 +6.3999674579791330e+00 +2.3246570872388711e-02 -4.3347773448215282e-01 -4.4791037814889264e-03
6.4999999999999929e+00 +4.6284684370130371e+00 +0.0000000000000000e+00 +6.4999659086183890e+00 +2.3246611714805025e-02 -4.3347762513560822e-01 -4.4790699845507946e-03
6.5999999999999925e+00 +4.6279031529852857e+00 +0.0000000000000000e+00 +6.5999643108444301e+00 +2.3246651544916872e-02 -4.3347751725015793e-01 -4.4790354915911854e-03
6.6999999999999922e+00 +4.6273292388155003e+00 +0.0000000000000000e+00 +6.6999626639124630e+00 +2.3246690379648383e-02 -4.3347741083752706e-01 -4.4790004031963534e-03
6.7999999999999918e+00 +4.6267466945100741e+00 +0.0000000000000000e+00 +6.7999609670776939e+00 +2.3246728236170848e-02 -4.3347730590968370e-01 -4.4789648202256376e-03
6.8999999999999915e+00 +4.6261555200754350e+00 +0.0000000000000000e+00 +6.8999592195953303e+00 +2.3246765131911162e-02 -4.3347720247885185e-01 -4.4789288438240194e-03
6.9999999999999911e+00 +4.6255557155180451e+00 +0.0000000000000000e+00 +6.9999574207205812e+00 +2.3246801084560290e-02 -4.3347710055752531e-01 -4.4788925754346409e-03
7.0999999999999908e+00 +4.6249472808444017e+00 +0.0000000000000000e+00 +7.0999555697086558e+00 +2.3246836112081618e-02 -4.3347700015848045e-01 -4.4788561168113165e-03
7.1999999999999904e+00 +4.6243302160610344e+00 +0.0000000000000000e+00 +7.1999536658147631e+00 +2.3246870232719468e-02 -4.3347690129479105e-01 -4.4788195700309905e-03
7.2999999999999901e+00 +4.6237045211745080e+00 +0.0000000000000000e+00 +7.2999517082941150e+00 +2.3246903465007598e-02 -4.3347680397983962e-01 -4.4787830375061701e-03
7.3999999999999897e+00 +4.6230701961914198e+00 +0.0000000000000000e+00 +7.3999496964019214e+00 +2.3246935827777634e-02 -4.3347670822733242e-01 -4.4787466219973491e-03
7.4999999999999893e+00 +4.6224272411184009e+00 +0.0000000000000000e+00 +7.4999476293933949e+00 +2.3246967340167648e-02 -4.3347661405131260e-01 -4.4787104266253664e-03
7.5999999999999890e+00 +4.6217756559621153e+00 +0.0000000000000000e+00 +7.5999455065237482e+00 +2.3246998021630647e-02 -4.3347652146617283e-01 -4.4786745548837537e-03
7.6999999999999886e+00 +4.6211154407292589e+00 +0.0000000000000000e+00 +7.6999433270481950e+00 +2.3247027891943123e-02 -4.3347643048666906e-01 -4.4786391106510356e-03
7.7999999999999883e+00 +4.6204465954265608e+00 +0.0000000000000000e+00 +7.7999410902219495e+00 +2.3247056971213681e-02 -4.3347634112793432e-01 -4.4786041982030154e-03
7.8999999999999879e+00 +4.6197691200607816e+00 +0.0000000000000000e+00 +7.8999387953002262e+00 +2.3247085279891565e-02 -4.3347625340549129e-01 -4.4785699222249899e-03
7.9999999999999876e+00 +4.6190830146387132e+00 +0.0000000000000000e+00 +7.9999364415382406e+00 +2.3247112838775310e-02 -4.3347616733526578e-01 -4.4785363878239578e-03
8.0999999999999872e+00 +4.6183882791671795e+00 +0.0000000000000000e+00 +8.0999340281912087e+00 +2.3247139680125439e-02 -4.3347608292178613e-01 -4.4785036810264653e-03
8.1999999999999869e+00 +4.6176849136530365e+00 +0.0000000000000000e+00 +8.1999315545143467e+00 +2.3247165880820982e-02 -4.3347600012256182e-01 -4.4784718099820618e-03
8.2999999999999865e+00 +4.6169729181031700e+00 +0.0000000000000000e+00 +8.2999290197628728e+00 +2.3247191528566073e-02 -4.3347591888340314e-01 -4.4784407633835519e-03
8.3999999999999861e+00 +4.6162522925245018e+00 +0.0000000000000000e+00 +8.3999264231920048e+00 +2.3247216710667325e-02 -4.3347583915026117e-01 -4.4784105300288823e-03
8.4999999999999858e+00 +4.6155230369239861e+00 +0.0000000000000000e+00 +8.4999237640569607e+00 +2.3247241514018833e-02 -4.3347576086922873e-01 -4.4783810988228753e-03
8.5999999999999854e+00 +4.6147851513086131e+00 +0.0000000000000000e+00 +8.5999210416129621e+00 +2.3247266025087348e-02 -4.3347568398654551e-01 -4.4783524587789555e-03
8.6999999999999851e+00 +4.6140386356854091e+00 +0.0000000000000000e+00 +8.6999182551152270e+00 +2.3247290329897301e-02 -4.3347560844860072e-01 -4.4783245990209003e-03
8.7999999999999847e+00 +4.6132834900614386e+00 +0.0000000000000000e+00 +8.7999154038189769e+00 +2.3247314514015842e-02 -4.3347553420193563e-01 -4.4782975087845267e-03
8.8999999999999844e+00 +4.6125197144438044e+00 +0.0000000000000000e+00 +8.8999124869794333e+00 +2.3247338662537895e-02 -4.3347546119324731e-01 -4.4782711774194383e-03
8.9999999999999840e+00 +4.6117473088396483e+00 +0.0000000000000000e+00 +8.9999095038518178e+00 +2.3247362860071126e-02 -4.3347538936939184e-01 -4.4782455943906995e-03
9.0999999999999837e+00 +4.6109662732561540e+00 +0.0000000000000000e+00 +9.0999064536913536e+00 +2.3247387190720947e-02 -4.3347531867738587e-01 -4.4782207492805436e-03
9.1999999999999833e+00 +4.6101766077005459e+00 +0.0000000000000000e+00 +9.1999033357532642e+00 +2.3247411738075447e-02 -4.3347524906441187e-01 -4.4781966317900702e-03
9.2999999999999829e+00 +4.6093783121800911e+00 +0.0000000000000000e+00 +9.2999001492927729e+00 +2.3247436585190413e-02 -4.3347518047781841e-01 -4.4781732317409123e-03
9.3999999999999826e+00 +4.6085713867021010e+00 +0.0000000000000000e+00 +9.3998968935651046e+00 +2.3247461814574124e-02 -4.3347511286512441e-01 -4.4781505390769152e-03
9.4999999999999822e+00 +4.6077558312739324e+00 +0.0000000000000000e+00 +9.4998935678254863e+00 +2.3247487508172338e-02 -4.3347504617402188e-01 -4.4781285438657992e-03
9.5999999999999819e+00 +4.6069316459029874e+00 +0.0000000000000000e+00 +9.5998901713291431e+00 +2.3247513747353132e-02 -4.3347498035237747e-01 -4.4781072363008169e-03
9.6999999999999815e+00 +4.6060988305967143e+00 +0.0000000000000000e+00 +9.6998867033313019e+00 +2.3247540612891762e-02 -4.3347491534823612e-01 -4.4780866067023950e-03
9.7999999999999812e+00 +4.6052573853626111e+00 +0.0000000000000000e+00 +9.7998831630871912e+00 +2.3247568184955450e-02 -4.3347485110982292e-01 -4.4780666455197845e-03
9.8999999999999808e+00 +4.6044073102082237e+00 +0.0000000000000000e+00 +9.8998795498520398e+00 +2.3247596543088236e-02 -4.3347478758554531e-01 -4.4780473433326789e-03
9.9999999999999805e+00 +4.6035486051411478e+00 +0.0000000000000000e+00 +9.9998758628810762e+00 +2.3247625766195750e-02 -4.3347472472399623e-01 -4.4780286908528387e-03
1.0099999999999980e+01 +4.6026812701690316e+00 +0.0000000000000000e+00 +1.0099872101429531e+01 +2.3247655899198656e-02 -4.3347466244728905e-01 -4.4780106713809198e-03
1.0199999999999980e+01 +4.6018053052995747e+00 +0.0000000000000000e+00 +1.0199868264752634e+01 +2.3247686852930886e-02 -4.3347460057069859e-01 -4.4779932379185065e-03
1.0299999999999979e+01 +4.6009207105405334e+00 +0.0000000000000000e+00 +1.0299864352105619e+01 +2.3247718505090168e-02 -4.3347453888292514e-01 -4.4779763356056759e-03
1.0399999999999979e+01 +4.6000274858997248e+00 +0.0000000000000000e+00 +1.0399860362743715e+01 +2.3247750733933668e-02 -4.3347447717297571e-01 -4.4779599092786091e-03
1.0499999999999979e+01 +4.5991256313850304e+00 +0.0000000000000000e+00 +1.0499856295922157e+01 +2.3247783418293037e-02 -4.3347441523017050e-01 -4.4779439034613906e-03
1.0599999999999978e+01 +4.5982151470044013e+00 +0.0000000000000000e+00 +1.0599852150896181e+01 +2.3247816437589320e-02 -4.3347435284414920e-01 -4.4779282623578533e-03
1.0699999999999978e+01 +4.5972960327658612e+00 +0.0000000000000000e+00 +1.0699847926921020e+01 +2.3247849671847946e-02 -4.3347428980487768e-01 -4.4779129298434441e-03
1.0799999999999978e+01 +4.5963682886775112e+00 +0.0000000000000000e+00 +1.0799843623251911e+01 +2.3247883001713623e-02 -4.3347422590265439e-01 -4.4778978494571528e-03
1.0899999999999977e+01 +4.5954319147475333e+00 +0.0000000000000000e+00 +1.0899839239144093e+01 +2.3247916308465320e-02 -4.3347416092811747e-01 -4.4778829643934573e-03
1.0999999999999977e+01 +4.5944869109841955e+00 +0.0000000000000000e+00 +1.0999834773852802e+01 +2.3247949474031117e-02 -4.3347409467225012e-01 -4.4778682174943171e-03
1.1099999999999977e+01 +4.5935332773958564e+00 +0.0000000000000000e+00 +1.1099830226633278e+01 +2.3247982381003177e-02 -4.3347402692638903e-01 -4.4778535512412180e-03
1.1199999999999976e+01 +4.5925710139909670e+00 +0.0000000000000000e+00 +1.1199825596740764e+01 +2.3248014912652548e-02 -4.3347395748222889e-01 -4.4778389077472225e-03
1.1299999999999976e+01 +4.5916001207780779e+00 +0.0000000000000000e+00 +1.1299820883430501e+01 +2.3248046952944117e-02 -4.3347388613183085e-01 -4.4778242287491117e-03
1.1399999999999975e+01 +4.5906205977658407e+00 +0.0000000000000000e+00 +1.1399816085957731e+01 +2.3248078386551387e-02 -4.3347381266762802e-01 -4.4778094555995348e-03
1.1499999999999975e+01 +4.5896324449630139e+00 +0.0000000000000000e+00 +1.1499811203577702e+01 +2.3248109098871358e-02 -4.3347373688243301e-01 -4.4777945292592183e-03
1.1599999999999975e+01 +4.5886356623784668e+00 +0.0000000000000000e+00 +1.1599806235545657e+01 +2.3248138976039327e-02 -4.3347365856944370e-01 -4.4777793902892014e-03
1.1699999999999974e+01 +4.5876302500211823e+00 +0.0000000000000000e+00 +1.1699801181116847e+01 +2.3248167904943735e-02 -4.3347357752225091e-01 -4.4777639788431533e-03
1.1799999999999974e+01 +4.5866162079002626e+00 +0.0000000000000000e+00 +1.1799796039546520e+01 +2.3248195773240863e-02 -4.3347349353484477e-01 -4.4777482346596937e-03
