# multipoles
# s[mm] polynom_b[n=0][T/m^n] polynom_b[n=1][T/m^n] polynom_b[n=2][T/m^n] polynom_b[n=3][T/m^n] polynom_b[n=4][T/m^n] polynom_b[n=5][T/m^n] polynom_b[n=6][T/m^n] 
+0.0000000000000000e+00 -3.4710058207266836e-01 +1.4441764593771343e-04 +2.5013521840734476e-01 +9.0400057026435405e+00 +6.5149456312276550e+02 +9.4443578697833418e+03 -7.9401767753423881e+06 
-1.0000000000000001e-01 -3.4710055389421701e-01 +1.2768212189324927e-04 +2.4900076601474713e-01 +9.4740468763086589e+00 +6.7155537470427032e+02 +7.2001390951306057e+03 -8.0243561416368447e+06 
-2.0000000000000001e-01 -3.4710052607008851e-01 +1.0917569737863612e-04 +2.4788234634497072e-01 +9.9382225634444552e+00 +6.8854122450474881e+02 +4.8404507376392430e+03 -8.0865279247237658e+06 
-3.0000000000000004e-01 -3.4710049821519828e-01 +8.9133281498211461e-05 +2.4677103736001366e-01 +1.0427352443856808e+01 +7.0275621499798956e+02 +2.3904611678245387e+03 -8.1285791608816730e+06 
-4.0000000000000002e-01 -3.4710046994443755e-01 +6.7789805083498929e-05 +2.4565791991446206e-01 +1.0936255835611760e+01 +7.1450434285517417e+02 -1.2466046810048128e+02 -8.1523962624393078e+06 
-5.0000000000000000e-01 -3.4710044087264513e-01 +4.5380219303528451e-05 +2.4453407298183041e-01 +1.1459751711817693e+01 +7.2408960146912989e+02 -2.6797441793659123e+03 -8.1598655365475109e+06 
-5.9999999999999998e-01 -3.4710041061467017e-01 +2.2139492920998976e-05 +2.4339058082410431e-01 +1.1992658751948719e+01 +7.3181585347698149e+02 -5.2496192503214452e+03 -8.1528726096219141e+06 
-6.9999999999999996e-01 -3.4710037878539152e-01 -1.6973862366642715e-06 +2.4221853444801145e-01 +1.2529795281821063e+01 +7.3798681359899899e+02 -7.8091137458165667e+03 -8.1333023770813579e+06 
-7.9999999999999993e-01 -3.4710034499972914e-01 -2.5895417667443374e-05 +2.4100903181781494e-01 +1.3065979430086291e+01 +7.4290605590336702e+02 -1.0333055234206502e+04 -8.1030390707292687e+06 
-8.9999999999999991e-01 -3.4710030887266319e-01 -5.0219586243444809e-05 +2.3975317970823123e-01 +1.3596029053336204e+01 +7.4687698661182174e+02 -1.2796270206435744e+04 -8.0639661554542463e+06 
-9.9999999999999989e-01 -3.4710027001930016e-01 -7.4434865591080691e-05 +2.3844210062617927e-01 +1.4114761802620492e+01 +7.5020272610786014e+02 -1.5173584272510854e+04 -8.0179658103079423e+06 
-1.0999999999999999e+00 -3.4710022805484569e-01 -9.8306218919655465e-05 +2.3706692895377798e-01 +1.4616995132737385e+01 +7.5318618744813455e+02 -1.7439822074256557e+04 -7.9669193165015513e+06 
-1.2000000000000000e+00 -3.4710018259465919e-01 -1.2159860094579330e-04 +2.3561881631174222e-01 +1.5097546326981266e+01 +7.5612999024517410e+02 -1.9569807243778145e+04 -7.9127066961125368e+06 
-1.3000000000000000e+00 -3.4710013325426980e-01 -1.4407696077383596e-04 +2.3408893303288666e-01 +1.5551232561195789e+01 +7.5933643841129151e+02 -2.1538362618032403e+04 -7.8572066249016877e+06 
-1.4000000000000001e+00 -3.4710007964940548e-01 -1.6550624129892043e-04 +2.3246847054544714e-01 +1.5972870861005488e+01 +7.6310748769320617e+02 -2.3320309824420685e+04 -7.8022963162508970e+06 
-1.5000000000000002e+00 -3.4710002139601642e-01 -1.8565138296454631e-04 +2.3074864358445607e-01 +1.6357278189172330e+01 +7.6774471302418522e+02 -2.4890469622507157e+04 -7.7498513953948952e+06 
-1.6000000000000003e+00 -3.4709995811029853e-01 -2.0427732466267958e-04 +2.2892069212732460e-01 +1.6699271444895835e+01 +7.7354928120627301e+02 -2.6223661728959029e+04 -7.7017457979801567e+06 
-1.7000000000000004e+00 -3.4709988940870928e-01 -2.2114900518322412e-04 +2.2697588237173416e-01 +1.6993667484508645e+01 +7.8082194369605463e+02 -2.7294704776200451e+04 -7.6598517701733196e+06 
-1.8000000000000005e+00 -3.4709981490800945e-01 -2.3603136469100511e-04 +2.2490551112617163e-01 +1.7235283138980037e+01 +7.8986296235399936e+02 -2.8078416246464283e+04 -7.6260395446757199e+06 
-1.9000000000000006e+00 -3.4709973422528201e-01 -2.4868934875464373e-04 +2.2270090707881113e-01 +1.7418935310980888e+01 +8.0097209680795811e+02 -2.8549612874457907e+04 -7.6021773151018415e+06 
-2.0000000000000004e+00 -3.4709964697794415e-01 -2.5888791088025432e-04 +2.2035342949662429e-01 +1.7539440584761632e+01 +8.1444858852339860e+02 -2.8683108778829162e+04 -7.5901311586999493e+06 
-2.1000000000000005e+00 -3.4709955296507261e-01 -2.6644630877430782e-04 +2.1785903301705567e-01 +1.7592700435716644e+01 +8.3051141526954279e+02 -2.8459077154071263e+04 -7.5913766674771020e+06 
-2.2000000000000006e+00 -3.4709945267382691e-01 -2.7139175925711709e-04 +2.1523766127431118e-01 +1.7579487932940321e+01 +8.4892577792975374e+02 -2.7883039815213728e+04 -7.6051289190911409e+06 
-2.3000000000000007e+00 -3.4709934675447285e-01 -2.7380440452655781e-04 +2.1251669623247618e-01 +1.7502024499028565e+01 +8.6930035327932126e+02 -2.6968420709818012e+04 -7.6297969171080589e+06 
-2.4000000000000008e+00 -3.4709923585735458e-01 -2.7376446029799993e-04 +2.0972353118291551e-01 +1.7362534291449816e+01 +8.9124352328766759e+02 -2.5728659590525232e+04 -7.6637880988525832e+06 
-2.5000000000000009e+00 -3.4709912063289777e-01 -2.7135217704597005e-04 +2.0688556587539958e-01 +1.7163242331280436e+01 +9.1436359807687018e+02 -2.4177200469600284e+04 -7.7055097003662512e+06 
-2.6000000000000010e+00 -3.4709900173156688e-01 -2.6664784177553221e-04 +2.0403020139417369e-01 +1.6906374539101403e+01 +9.3826891186797229e+02 -2.2327491798953521e+04 -7.7533692036819104e+06 
-2.7000000000000011e+00 -3.4709887980387943e-01 -2.5973178388576492e-04 +2.0118484188598440e-01 +1.6594157887652319e+01 +9.6256778993791590e+02 -2.0192987305983697e+04 -7.8057741750408951e+06 
-2.8000000000000012e+00 -3.4709875550038222e-01 -2.5068437692492534e-04 +1.9837689156104271e-01 +1.6228820437922263e+01 +9.8686860652371126e+02 -1.7787146174525860e+04 -7.8611325383876739e+06 
-2.9000000000000012e+00 -3.4709862947163655e-01 -2.3958604321726702e-04 +1.9563375286734005e-01 +1.5812591457300197e+01 +1.0107798176686294e+03 -1.5123433692037992e+04 -7.9178527210743185e+06 
-3.0000000000000013e+00 -3.4709850236821588e-01 -2.2651725613491111e-04 +1.9298282618794749e-01 +1.5347701472967270e+01 +1.0339099686632019e+03 -1.2215321532126938e+04 -7.9743436906046923e+06 
-3.1000000000000014e+00 -3.4709837484068484e-01 -2.1155854622212776e-04 +1.9045150735942726e-01 +1.4836382428287690e+01 +1.0558677385642281e+03 -9.0762886082845835e+03 -8.0290151537619857e+06 
-3.2000000000000015e+00 -3.4709824753958768e-01 -1.9479050088465157e-04 +1.8806718590027058e-01 +1.4280867662733124e+01 +1.0762619765822817e+03 -5.7198209378292622e+03 -8.0802777323031900e+06 
-3.3000000000000016e+00 -3.4709812111544902e-01 -1.7629377127682656e-04 +1.8585724550879498e-01 +1.3683392092786413e+01 +1.0947016898315505e+03 -2.1594126421782266e+03 -8.1265428940155981e+06 
-3.4000000000000017e+00 -3.4709799621874726e-01 -1.5614907428880339e-04 +1.8384906043731145e-01 +1.3046192256876214e+01 +1.1107961136193321e+03 +1.5914338186497646e+03 -8.1662232846096233e+06 
-3.5000000000000018e+00 -3.4709787349990218e-01 -1.3443719677225306e-04 +1.8206999405491686e-01 +1.2371506417380605e+01 +1.1241547379918054e+03 +5.5192071035203380e+03 -8.1977328477455927e+06 
-3.6000000000000019e+00 -3.4709775360928385e-01 -1.1123899734684036e-04 +1.8054740002404646e-01 +1.1661574602684402e+01 +1.1343872852583586e+03 +9.6103867685566056e+03 -8.2194867147833901e+06 
-3.7000000000000020e+00 -3.4709763719716602e-01 -8.6635412780255330e-05 +1.7930861626575631e-01 +1.0918638773289434e+01 +1.1411038248070722e+03 +1.3851442349344930e+04 -8.2299017435404472e+06 
-3.8000000000000020e+00 -3.4709752491374790e-01 -6.0707458900456358e-05 +1.7838096805565501e-01 +1.0144942831569757e+01 +1.1439147126762402e+03 +1.8228833343997831e+04 -8.2273962255355045e+06 
-3.9000000000000021e+00 -3.4709741740912103e-01 -3.3536235573708238e-05 +1.7779176358561688e-01 +9.3427327525421493e+00 +1.1424306770773558e+03 +2.2729008483659170e+04 -8.2103902890473148e+06 
-4.0000000000000018e+00 -3.4709731533297306e-01 -5.2030201481356775e-06 +1.7756823788502482e-01 +8.5142570480788731e+00 +1.1362638631133914e+03 +2.7338434537218156e+04 -8.1773083661738085e+06 
-4.1000000000000014e+00 -3.4709721914486558e-01 +2.4187331029308678e-05 +1.7772347808025640e-01 +7.6622728059601055e+00 +1.1252514517891509e+03 +3.2042245696770704e+04 -8.1274498518537292e+06 
-4.2000000000000011e+00 -3.4709712857105635e-01 +5.4439144761191199e-05 +1.7822704541120882e-01 +6.7917943550408904e+00 +1.1098378787928323e+03 +3.6815729629084402e+04 -8.0624311105168406e+06 
-4.3000000000000007e+00 -3.4709704314977974e-01 +8.5328099721288864e-05 +1.7903955951099701e-01 +5.9086370640216614e+00 +1.0905640484586572e+03 +4.1630246893050869e+04 -7.9841894050534377e+06 
-4.4000000000000004e+00 -3.4709696241892457e-01 +1.1662984491265766e-04 +1.8012162174511459e-01 +5.0186182613214623e+00 +1.0679707632642976e+03 +4.6457154197820819e+04 -7.8946610682831211e+06 
-4.5000000000000000e+00 -3.4709688591597526e-01 +1.4812011378908076e-04 +1.8143379242784838e-01 +4.1275529191636844e+00 +1.0425994273272513e+03 +5.1267820814338374e+04 -7.7957846877717031e+06 
-4.5999999999999996e+00 -3.4709681317799190e-01 +1.7957473192823330e-04 +1.8293658868612186e-01 +3.2412534420301302e+00 +1.0149920773877761e+03 +5.6033629705854451e+04 -7.6895012199292202e+06 
-4.6999999999999993e+00 -3.4709674374159416e-01 +2.1076962072633088e-04 +1.8459048333099004e-01 +2.3655295765189872e+00 +9.8569139098823769e+02 +6.0725977941121404e+04 -7.5777539879139792e+06 
-4.7999999999999989e+00 -3.4709667714291675e-01 +2.4148080807566847e-04 +1.8635590004374089e-01 +1.5061881157929036e+00 +9.5524076573485058e+02 +6.5316278308414898e+04 -7.4624890176043380e+06 
-4.8999999999999986e+00 -3.4709661291760746e-01 +2.7148443044181994e-04 +1.8819321347891971e-01 +6.6903285216642983e-01 +9.2418430701441639e+02 +6.9775959489602974e+04 -7.3456549461001437e+06 
-4.9999999999999982e+00 -3.4709655060079109e-01 +3.0055674206937275e-04 +1.9006274581746399e-01 -1.4013567703864799e-01 +8.9306688010942014e+02 +7.4076467436139777e+04 -7.2292032265624395e+06 
-5.0999999999999979e+00 -3.4709648972704088e-01 +3.2847412181678782e-04 +1.9192476344522263e-01 -9.1552036931059333e-01 +8.6243416307322696e+02 +7.8189266296160378e+04 -7.1150883448923361e+06 
-5.1999999999999975e+00 -3.4709642983037564e-01 +3.5501307834332699e-04 +1.9373947759744153e-01 -1.6513276958569159e+00 +8.3283262155205023e+02 +8.2085839125165367e+04 -7.0052676601280980e+06 
-5.2999999999999972e+00 -3.4709637044422098e-01 +3.7995025580687822e-04 +1.9546704007811105e-01 -2.3417678554780679e+00 +8.0480957885536907e+02 +8.5737688685793721e+04 -6.9017017006395226e+06 
-5.3999999999999968e+00 -3.4709631110137140e-01 +4.0306244410481730e-04 +1.9706753907942229e-01 -2.9810550488755054e+00 +7.7891328338354981e+02 +8.9116338906842531e+04 -6.8063544438449396e+06 
-5.4999999999999964e+00 -3.4709625133400512e-01 +4.2412658216500049e-04 +1.9850100187274641e-01 -3.5634075707206034e+00 +7.5569284587038931e+02 +9.2193335346224165e+04 -6.7211929833714021e+06 
-5.5999999999999961e+00 -3.4709619067361686e-01 +4.4291976493906305e-04 +1.9972738690607963e-01 -4.0830479896916181e+00 +7.3569837815941207e+02 +9.4940246109643223e+04 -6.6481881488712598e+06 
-5.6999999999999957e+00 -3.4709612865103312e-01 +4.5921925147381852e-04 +2.0070658647632089e-01 -4.5342033696139712e+00 +7.1948093008342084e+02 +9.7328663029130432e+04 -6.5893141685010167e+06 
-5.7999999999999954e+00 -3.4709606479635940e-01 +4.7280247020292567e-04 +2.0139842086799481e-01 -4.9111054150974169e+00 +7.0759258924233006e+02 +9.9330202424805451e+04 -6.5465491046084864e+06 
-5.8999999999999950e+00 -3.4709599863897528e-01 +4.8344702697073762e-04 +2.0176263809700282e-01 -5.2079906803500906e+00 +7.0058647567066760e+02 +1.0091650618143444e+05 -6.5218747948044287e+06 
-5.9999999999999947e+00 -3.4709592970917574e-01 +4.9093168628448606e-04 +2.0175930891586777e-01 -5.4191164601990387e+00 +6.9900906119222805e+02 +1.0205920612784664e+05 -6.5172493816101700e+06 
-6.0999999999999943e+00 -3.4709585763986633e-01 +4.9514225115257287e-04 +2.0137062200643099e-01 -5.5409790912267125e+00 +7.0299603396164935e+02 +1.0273908764153911e+05 -6.5328958712767474e+06 
-6.1999999999999940e+00 -3.4709578254856938e-01 +4.9628343570594607e-04 +2.0062307698416734e-01 -5.5777823531452633e+00 +7.1205782090819673e+02 +1.0297533833873781e+05 -6.5667413977445392e+06 
-6.2999999999999936e+00 -3.4709570472654139e-01 +4.9465693478244481e-04 +1.9954862860513450e-01 -5.5366671141178996e+00 +7.2574960372562953e+02 +1.0280343391035292e+05 -6.6172607644712152e+06 
-6.3999999999999932e+00 -3.4709562446544812e-01 +4.9056563434051543e-04 +1.9817909068622022e-01 -5.4248294201391900e+00 +7.4363336909442376e+02 +1.0225918089365477e+05 -6.6829703963352721e+06 
-6.4999999999999929e+00 -3.4709554205759435e-01 +4.8431229353981152e-04 +1.9654633196055940e-01 -5.2494615890678196e+00 +7.6527035396176313e+02 +1.0137836535628988e+05 -6.7623841020473009e+06 
-6.5999999999999925e+00 -3.4709545779593853e-01 +4.7619953642943409e-04 +1.9468227648150105e-01 -5.0177519600095044e+00 +7.9022105380000642e+02 +1.0019675148236883e+05 -6.8540131630478278e+06 
-6.6999999999999922e+00 -3.4709537197414275e-01 +4.6652984706903555e-04 +1.9261890930251693e-01 -4.7368847509030587e+00 +8.1804512595544975e+02 +9.8750080811893247e+04 -6.9563659149126373e+06 
-6.7999999999999918e+00 -3.4709528488658142e-01 +4.5560556235165682e-04 +1.9038827593127544e-01 -4.4140398571823480e+00 +8.4830141760512345e+02 +9.7074071156613238e+04 -7.0679479340924751e+06 
-6.8999999999999915e+00 -3.4709519682839890e-01 +4.4372886455219910e-04 +1.8802248881902089e-01 -4.0563926272755237e+00 +8.8054785392567896e+02 +9.5204415342241628e+04 -7.1872615472726626e+06 
-6.9999999999999911e+00 -3.4709510809552402e-01 +4.3120177726597969e-04 +1.8555372798809264e-01 -3.6711137492994399e+00 +9.1434144093005295e+02 +9.3176780630077032e+04 -7.3128058922399739e+06 
-7.0999999999999908e+00 -3.4709501898470113e-01 +4.1832615654279414e-04 +1.8301424382245496e-01 -3.2653689922048845e+00 +9.4923822700361222e+02 +9.1026807275834217e+04 -7.4430767827465599e+06 
-7.1999999999999904e+00 -3.4709492979353324e-01 +4.0540368635430876e-04 +1.8043636143845765e-01 -2.8463190723231082e+00 +9.8479323293188304e+02 +8.8790107821380123e+04 -7.5765664193630265e+06 
-7.2999999999999901e+00 -3.4709484082051123e-01 +3.9273587044833273e-04 +1.7785248313656898e-01 -2.4211194207448550e+00 +1.0205604203629417e+03 +8.6502265819436958e+04 -7.7117632890200540e+06 
-7.3999999999999897e+00 -3.4709475236503123e-01 +3.8062402737105814e-04 +1.7529508973950456e-01 -1.9969200353326597e+00 +1.0560926786613993e+03 +8.4198835033493888e+04 -7.8471521429616446e+06 
-7.4999999999999893e+00 -3.4709466472744083e-01 +3.6936928212513546e-04 +1.7279674504877329e-01 -1.5808652380288690e+00 +1.0909417560160864e+03 +8.1915338098030566e+04 -7.9812137205892354e+06 
-7.5999999999999890e+00 -3.4709457820907402e-01 +3.5927256065586819e-04 +1.7039009918019615e-01 -1.1800935188869448e+00 +1.1246582098863666e+03 +7.9687265690451444e+04 -8.1124245596800596e+06 
-7.6999999999999886e+00 -3.4709449311225832e-01 +3.5063458438778009e-04 +1.6810788849754824e-01 -8.0173737250590627e-01 +1.1567914202173577e+03 +7.7550075636474503e+04 -8.2392570980401412e+06 
-7.7999999999999883e+00 -3.4709440974038819e-01 +3.4375586099975224e-04 +1.6598294367796074e-01 -4.5292303384923815e-01 +1.1868894521485506e+03 +7.5539191457832319e+04 -8.3601790748840226e+06 
-7.8999999999999879e+00 -3.4709432839790427e-01 +3.3893667975551974e-04 +1.6404818597014140e-01 -1.4077034044207987e-01 +1.2144991400297615e+03 +7.3690001633512220e+04 -8.4736539694889467e+06 
-7.9999999999999876e+00 -3.4709424938649358e-01 +3.3647552828363757e-04 +1.6233580604579925e-01 +1.2761223617922618e-01 +1.2391793920336222e+03 +7.2038025112467629e+04 -8.5781864212789312e+06 
-8.0999999999999872e+00 -3.4709417292665362e-01 +3.3657114622310879e-04 +1.6085584697906871e-01 +3.4673062218341161e-01 +1.2608653173772450e+03 +7.0613249042130774e+04 -8.6738038821883835e+06 
-8.1999999999999869e+00 -3.4709409890142290e-01 +3.3912588801193793e-04 +1.5959408461591132e-01 +5.1736995191583035e-01 +1.2797838986381921e+03 +6.9415287813451039e+04 -8.7614188926543165e+06 
-8.2999999999999865e+00 -3.4709402705166953e-01 +3.4392695832968008e-04 +1.5853995940938606e-01 +6.4340761721537953e-01 +1.2959715325218310e+03 +6.8426083922312013e+04 -8.8407029914242141e+06 
-8.3999999999999861e+00 -3.4709395711822971e-01 +3.5075842312368741e-04 +1.5768337667981158e-01 +7.2885152740836257e-01 +1.3094482928094988e+03 +6.7626638715530353e+04 -8.9112196274072733e+06 
-8.4999999999999858e+00 -3.4709388884136150e-01 +3.5940446169819331e-04 +1.5701420266526217e-01 +7.7770685455659838e-01 +1.3202347415328534e+03 +6.6997965868127474e+04 -8.9725337821069863e+06 
-8.5999999999999854e+00 -3.4709382196074157e-01 +3.6964937472346867e-04 +1.5652226488832105e-01 +7.9397580874243778e-01 +1.3283519152958127e+03 +6.6521092590819055e+04 -9.0242118830088377e+06 
-8.6999999999999851e+00 -3.4709375621542959e-01 +3.8127758486717917e-04 +1.5619734913219041e-01 +7.8165764088194123e-01 +1.3338213718370657e+03 +6.6177059490893284e+04 -9.0658219921803698e+06 
-8.7999999999999847e+00 -3.4709369134385221e-01 +3.9407364314320091e-04 +1.5602919865247394e-01 +7.4474847003249345e-01 +1.3366651954206943e+03 +6.5946921466808824e+04 -9.0969338027587179e+06 
-8.8999999999999844e+00 -3.4709362708378488e-01 +4.0782223360692093e-04 +1.5600751267846813e-01 +6.8724117095232928e-01 +1.3369060194969645e+03 +6.5811748226411815e+04 -9.1171187276431266e+06 
-8.9999999999999840e+00 -3.4709356317231871e-01 +4.2230817736451775e-04 +1.5612194390455592e-01 +6.1312526327014527e-01 +1.3345670609853591e+03 +6.5752624841725585e+04 -9.1259500223141778e+06 
-9.0999999999999837e+00 -3.4709349934585876e-01 +4.3731643732215672e-04 +1.5636209908058038e-01 +5.2638679657734422e-01 +1.3296721037227446e+03 +6.5750652283848205e+04 -9.1230026897515971e+06 
-9.1999999999999833e+00 -3.4709343534009779e-01 +4.5263212198349596e-04 +1.5671753713625428e-01 +4.3100825577107738e-01 +1.3222455228889812e+03 +6.5786947856759696e+04 -9.1078535632710680e+06 
-9.2999999999999829e+00 -3.4709337088997566e-01 +4.6804049094168105e-04 +1.5717776501814515e-01 +3.3096841473545058e-01 +1.3123123562416349e+03 +6.5842645938469650e+04 -9.0800816182605959e+06 
-9.3999999999999826e+00 -3.4709330572969527e-01 +4.8332695890262567e-04 +1.5773224104801739e-01 +2.3024223877336764e-01 +1.2998982309620967e+03 +6.5898898423534090e+04 -9.0392675995081626e+06 
-9.4999999999999822e+00 -3.4709323959267091e-01 +4.9827710096306103e-04 +1.5837036941367502e-01 +1.3280074616595772e-01 +1.2850294600040077e+03 +6.5936875413114743e+04 -8.9849944508608226e+06 
-9.5999999999999819e+00 -3.4709317221151159e-01 +5.1267665590432499e-04 +1.5908149937291982e-01 +4.2610927637448774e-02 +1.2677330478896145e+03 +6.5937765569440744e+04 -8.9168473154224157e+06 
-9.6999999999999815e+00 -3.4709310331802540e-01 +5.2631153215893943e-04 +1.5985492705432605e-01 -3.6364406953689365e-02 +1.2480366467344716e+03 +6.5882776879111756e+04 -8.8344132982203122e+06 
-9.7999999999999812e+00 -3.4709303264316727e-01 +5.3896781091091123e-04 +1.6067988973016922e-01 -1.0016670786675420e-01 +1.2259686586575872e+03 +6.5753137010130391e+04 -8.7372819306988325e+06 
-9.8999999999999808e+00 -3.4709295991704070e-01 +5.5043175185287259e-04 +1.6154556744618059e-01 -1.4484183171885232e-01 +1.2015581939936333e+03 +6.5530094032536414e+04 -8.6250449414756522e+06 
-9.9999999999999805e+00 -3.4709288487098516e-01 +5.6048881979870108e-04 +1.6244133585796861e-01 -1.6634433845792151e-01 +1.1748393614730730e+03 +6.5194347370172087e+04 -8.4973334657559954e+06 
-1.0099999999999980e+01 -3.4709280730787406e-01 +5.6894562619648362e-04 +1.6336574705982257e-01 -1.6028123330428676e-01 +1.1457711665093511e+03 +6.4723168119638467e+04 -8.3536684414826343e+06 
