# trajectory
# s[mm] rx[mm] ry[mm] rz[mm] px[rad] py[rad] pz[rad]
0.0000000000000000e+00 -4.6467000000000001e+00 +0.0000000000000000e+00 +0.0000000000000000e+00 +0.0000000000000000e+00 +0.0000000000000000e+00 +1.0000000000000000e+00
-1.0000000000000001e-01 -4.6466956886067914e+00 +0.0000000000000000e+00 -9.9999999876079271e-02 -8.6227863840608813e-05 +0.0000000000000000e+00 +9.9999999628237779e-01
-2.0000000000000001e-01 -4.6466827544273288e+00 +0.0000000000000000e+00 -1.9999999900863408e-01 -1.7245572478941047e-04 +0.0000000000000000e+00 +9.9999998512951138e-01
-3.0000000000000004e-01 -4.6466611974619871e+00 +0.0000000000000000e+00 -2.9999999665414007e-01 -2.5868358115722326e-04 +0.0000000000000000e+00 +9.9999996654140189e-01
-4.0000000000000002e-01 -4.6466310177113010e+00 +0.0000000000000000e+00 -3.9999999206907300e-01 -3.4491143144299894e-04 +0.0000000000000000e+00 +9.9999994051805052e-01
-5.0000000000000000e-01 -4.6465922151759456e+00 +0.0000000000000000e+00 -4.9999998450990879e-01 -4.3113927433381324e-04 +0.0000000000000000e+00 +9.9999990705945885e-01
-5.9999999999999998e-01 -4.6465447898567183e+00 +0.0000000000000000e+00 -5.9999997323312348e-01 -5.1736710870486501e-04 +0.0000000000000000e+00 +9.9999986616562853e-01
-6.9999999999999996e-01 -4.6464887417545198e+00 +0.0000000000000000e+00 -6.9999995749519328e-01 -6.0359493361948385e-04 +0.0000000000000000e+00 +9.9999981783656156e-01
-7.9999999999999993e-01 -4.6464240708703350e+00 +0.0000000000000000e+00 -7.9999993655259460e-01 -6.8982274832914592e-04 +0.0000000000000000e+00 +9.9999976207225971e-01
-8.9999999999999991e-01 -4.6463507772052131e+00 +0.0000000000000000e+00 -8.9999990966180410e-01 -7.7605055227349801e-04 +0.0000000000000000e+00 +9.9999969887272488e-01
-9.9999999999999989e-01 -4.6462688607602516e+00 +0.0000000000000000e+00 -9.9999987607929852e-01 -8.6227834508039044e-04 +0.0000000000000000e+00 +9.9999962823795874e-01
-1.0999999999999999e+00 -4.6461783215365751e+00 +0.0000000000000000e+00 -1.0999998350615547e+00 -9.4850612656591769e-04 +0.0000000000000000e+00 +9.9999955016796283e-01
-1.2000000000000000e+00 -4.6460791595353159e+00 +0.0000000000000000e+00 -1.1999997858650500e+00 -1.0347338967344681e-03 +0.0000000000000000e+00 +9.9999946466273826e-01
-1.3000000000000000e+00 -4.6459713747575986e+00 +0.0000000000000000e+00 -1.2999997277462614e+00 -1.1209616557787813e-03 +0.0000000000000000e+00 +9.9999937172228581e-01
-1.4000000000000001e+00 -4.6458549672045182e+00 +0.0000000000000000e+00 -1.3999996599616662e+00 -1.2071894040800142e-03 +0.0000000000000000e+00 +9.9999927134660593e-01
-1.5000000000000002e+00 -4.6457299368771219e+00 +0.0000000000000000e+00 -1.4999995817677416e+00 -1.2934171422078161e-03 +0.0000000000000000e+00 +9.9999916353569840e-01
-1.6000000000000003e+00 -4.6455962837763911e+00 +0.0000000000000000e+00 -1.5999994924209648e+00 -1.3796448709204106e-03 +0.0000000000000000e+00 +9.9999904828956232e-01
-1.7000000000000004e+00 -4.6454540079032212e+00 +0.0000000000000000e+00 -1.6999993911778131e+00 -1.4658725911646873e-03 +0.0000000000000000e+00 +9.9999892560819625e-01
-1.8000000000000005e+00 -4.6453031092584034e+00 +0.0000000000000000e+00 -1.7999992772947631e+00 -1.5521003040763006e-03 +0.0000000000000000e+00 +9.9999879549159776e-01
-1.9000000000000006e+00 -4.6451435878426066e+00 +0.0000000000000000e+00 -1.8999991500282913e+00 -1.6383280109797786e-03 +0.0000000000000000e+00 +9.9999865793976384e-01
-2.0000000000000004e+00 -4.6449754436563575e+00 +0.0000000000000000e+00 -1.9999990086348745e+00 -1.7245557133886381e-03 +0.0000000000000000e+00 +9.9999851295269027e-01
-2.1000000000000005e+00 -4.6447986767000220e+00 +0.0000000000000000e+00 -2.0999988523709878e+00 -1.8107834129898995e-03 +0.0000000000000000e+00 +9.9999836053037194e-01
-2.2000000000000006e+00 -4.6446132869737964e+00 +0.0000000000000000e+00 -2.1999986804931071e+00 -1.8970111114724800e-03 +0.0000000000000000e+00 +9.9999820067280298e-01
-2.3000000000000007e+00 -4.6444192744777144e+00 +0.0000000000000000e+00 -2.2999984922577066e+00 -1.9832388103555114e-03 +0.0000000000000000e+00 +9.9999803337997706e-01
-2.4000000000000008e+00 -4.6442166392116677e+00 +0.0000000000000000e+00 -2.3999982869212602e+00 -2.0694665109727236e-03 +0.0000000000000000e+00 +9.9999785865188762e-01
-2.5000000000000009e+00 -4.6440053811754236e+00 +0.0000000000000000e+00 -2.4999980637402417e+00 -2.1556942144724286e-03 +0.0000000000000000e+00 +9.9999767648852778e-01
-2.6000000000000010e+00 -4.6437855003686446e+00 +0.0000000000000000e+00 -2.5999978219711233e+00 -2.2419219218174987e-03 +0.0000000000000000e+00 +9.9999748688989065e-01
-2.7000000000000011e+00 -4.6435569967909061e+00 +0.0000000000000000e+00 -2.6999975608703770e+00 -2.3281496337853327e-03 +0.0000000000000000e+00 +9.9999728985596914e-01
-2.8000000000000012e+00 -4.6433198704417142e+00 +0.0000000000000000e+00 -2.7999972796944741e+00 -2.4143773509678183e-03 +0.0000000000000000e+00 +9.9999708538675636e-01
-2.9000000000000012e+00 -4.6430741213205255e+00 +0.0000000000000000e+00 -2.8999969776998848e+00 -2.5006050737712837e-03 +0.0000000000000000e+00 +9.9999687348224520e-01
-3.0000000000000013e+00 -4.6428197494267653e+00 +0.0000000000000000e+00 -2.9999966541430796e+00 -2.5868328024164404e-03 +0.0000000000000000e+00 +9.9999665414242900e-01
-3.1000000000000014e+00 -4.6425567547598465e+00 +0.0000000000000000e+00 -3.0999963082805269e+00 -2.6730605369383207e-03 +0.0000000000000000e+00 +9.9999642736730132e-01
-3.2000000000000015e+00 -4.6422851373191865e+00 +0.0000000000000000e+00 -3.1999959393686956e+00 -2.7592882771862058e-03 +0.0000000000000000e+00 +9.9999619315685595e-01
-3.3000000000000016e+00 -4.6420048971042291e+00 +0.0000000000000000e+00 -3.2999955466640540e+00 -2.8455160228235440e-03 +0.0000000000000000e+00 +9.9999595151108711e-01
-3.4000000000000017e+00 -4.6417160341144594e+00 +0.0000000000000000e+00 -3.3999951294230688e+00 -2.9317437733278641e-03 +0.0000000000000000e+00 +9.9999570242998959e-01
-3.5000000000000018e+00 -4.6414185483494244e+00 +0.0000000000000000e+00 -3.4999946869022072e+00 -3.0179715279906780e-03 +0.0000000000000000e+00 +9.9999544591355860e-01
-3.6000000000000019e+00 -4.6411124398087518e+00 +0.0000000000000000e+00 -3.5999942183579359e+00 -3.1041992859173768e-03 +0.0000000000000000e+00 +9.9999518196179027e-01
-3.7000000000000020e+00 -4.6407977084921681e+00 +0.0000000000000000e+00 -3.6999937230467208e+00 -3.1904270460271179e-03 +0.0000000000000000e+00 +9.9999491057468126e-01
-3.8000000000000020e+00 -4.6404743543995162e+00 +0.0000000000000000e+00 -3.7999932002250274e+00 -3.2766548070527054e-03 +0.0000000000000000e+00 +9.9999463175222902e-01
-3.9000000000000021e+00 -4.6401423775307755e+00 +0.0000000000000000e+00 -3.8999926491493215e+00 -3.3628825675404601e-03 +0.0000000000000000e+00 +9.9999434549443211e-01
-4.0000000000000018e+00 -4.6398017778860803e+00 +0.0000000000000000e+00 -3.9999920690760686e+00 -3.4491103258500844e-03 +0.0000000000000000e+00 +9.9999405180128986e-01
-4.1000000000000014e+00 -4.6394525554657386e+00 +0.0000000000000000e+00 -4.0999914592617346e+00 -3.5353380801614676e-03 +0.0000000000000000e+00 +9.9999375067280283e-01
-4.2000000000000011e+00 -4.6390947102702453e+00 +0.0000000000000000e+00 -4.1999908189627844e+00 -3.6215658285510348e-03 +0.0000000000000000e+00 +9.9999344210897212e-01
-4.3000000000000007e+00 -4.6387282423002905e+00 +0.0000000000000000e+00 -4.2999901474356843e+00 -3.7077935690681867e-03 +0.0000000000000000e+00 +9.9999312610979973e-01
-4.4000000000000004e+00 -4.6383531515567595e+00 +0.0000000000000000e+00 -4.3999894439369003e+00 -3.7940212997422500e-03 +0.0000000000000000e+00 +9.9999280267528812e-01
-4.5000000000000000e+00 -4.6379694380407361e+00 +0.0000000000000000e+00 -4.4999887077228982e+00 -3.8802490185824772e-03 +0.0000000000000000e+00 +9.9999247180544037e-01
-4.5999999999999996e+00 -4.6375771017535046e+00 +0.0000000000000000e+00 -4.5999879380501447e+00 -3.9664767235780473e-03 +0.0000000000000000e+00 +9.9999213350026006e-01
-4.6999999999999993e+00 -4.6371761426965499e+00 +0.0000000000000000e+00 -4.6999871341751067e+00 -4.0527044126980648e-03 +0.0000000000000000e+00 +9.9999178775975150e-01
-4.7999999999999989e+00 -4.6367665608715622e+00 +0.0000000000000000e+00 -4.7999862953542509e+00 -4.1389320838915661e-03 +0.0000000000000000e+00 +9.9999143458391959e-01
-4.8999999999999986e+00 -4.6363483562804380e+00 +0.0000000000000000e+00 -4.8999854208440468e+00 -4.2251597350875213e-03 +0.0000000000000000e+00 +9.9999107397276987e-01
-4.9999999999999982e+00 -4.6359215289252811e+00 +0.0000000000000000e+00 -4.9999845099009619e+00 -4.3113873641948425e-03 +0.0000000000000000e+00 +9.9999070592630834e-01
-5.0999999999999979e+00 -4.6354860788084054e+00 +0.0000000000000000e+00 -5.0999835617814648e+00 -4.3976149691023906e-03 +0.0000000000000000e+00 +9.9999033044454189e-01
-5.1999999999999975e+00 -4.6350420059323376e+00 +0.0000000000000000e+00 -5.1999825757420268e+00 -4.4838425476789812e-03 +0.0000000000000000e+00 +9.9998994752747794e-01
-5.2999999999999972e+00 -4.6345893102998188e+00 +0.0000000000000000e+00 -5.2999815510391173e+00 -4.5700700977733995e-03 +0.0000000000000000e+00 +9.9998955717512461e-01
-5.3999999999999968e+00 -4.6341279919138048e+00 +0.0000000000000000e+00 -5.3999804869292083e+00 -4.6562976172144074e-03 +0.0000000000000000e+00 +9.9998915938749067e-01
-5.4999999999999964e+00 -4.6336580507774707e+00 +0.0000000000000000e+00 -5.4999793826687728e+00 -4.7425251038107604e-03 +0.0000000000000000e+00 +9.9998875416458555e-01
-5.5999999999999961e+00 -4.6331794868942113e+00 +0.0000000000000000e+00 -5.5999782375142839e+00 -4.8287525553512177e-03 +0.0000000000000000e+00 +9.9998834150641946e-01
-5.6999999999999957e+00 -4.6326923002676432e+00 +0.0000000000000000e+00 -5.6999770507222154e+00 -4.9149799696045614e-03 +0.0000000000000000e+00 +9.9998792141300319e-01
-5.7999999999999954e+00 -4.6321964909016078e+00 +0.0000000000000000e+00 -5.7999758215490429e+00 -5.0012073443196125e-03 +0.0000000000000000e+00 +9.9998749388434827e-01
-5.8999999999999950e+00 -4.6316920588001729e+00 +0.0000000000000000e+00 -5.8999745492512439e+00 -5.0874346772252490e-03 +0.0000000000000000e+00 +9.9998705892046691e-01
-5.9999999999999947e+00 -4.6311790039676328e+00 +0.0000000000000000e+00 -5.9999732330852957e+00 -5.1736619660304262e-03 +0.0000000000000000e+00 +9.9998661652137211e-01
-6.0999999999999943e+00 -4.6306573264085138e+00 +0.0000000000000000e+00 -6.0999718723076786e+00 -5.2598892084283477e-03 +0.0000000000000000e+00 +9.9998616668707752e-01
-6.1999999999999940e+00 -4.6301270261275702e+00 +0.0000000000000000e+00 -6.1999704661748725e+00 -5.3461164021421821e-03 +0.0000000000000000e+00 +9.9998570941759723e-01
-6.2999999999999936e+00 -4.6295881031297812e+00 +0.0000000000000000e+00 -6.2999690139433593e+00 -5.4323435449708151e-03 +0.0000000000000000e+00 +9.9998524471294570e-01
-6.3999999999999932e+00 -4.6290405574203426e+00 +0.0000000000000000e+00 -6.3999675148696227e+00 -5.5185706347930562e-03 +0.0000000000000000e+00 +9.9998477257313734e-01
-6.4999999999999929e+00 -4.6284843890046572e+00 +0.0000000000000000e+00 -6.4999659682101480e+00 -5.6047976695676868e-03 +0.0000000000000000e+00 +9.9998429299818681e-01
-6.5999999999999925e+00 -4.6279195978883294e+00 +0.0000000000000000e+00 -6.5999643732214226e+00 -5.6910246473335108e-03 +0.0000000000000000e+00 +9.9998380598810888e-01
-6.6999999999999922e+00 -4.6273461840771537e+00 +0.0000000000000000e+00 -6.6999627291599335e+00 -5.7772515662094081e-03 +0.0000000000000000e+00 +9.9998331154291820e-01
-6.7999999999999918e+00 -4.6267641475771102e+00 +0.0000000000000000e+00 -6.7999610352821698e+00 -5.8634784243943878e-03 +0.0000000000000000e+00 +9.9998280966262965e-01
-6.8999999999999915e+00 -4.6261734883943548e+00 +0.0000000000000000e+00 -6.8999592908446230e+00 -5.9497052201676458e-03 +0.0000000000000000e+00 +9.9998230034725788e-01
-6.9999999999999911e+00 -4.6255742065352115e+00 +0.0000000000000000e+00 -6.9999574951037857e+00 -6.0359319518886265e-03 +0.0000000000000000e+00 +9.9998178359681755e-01
-7.0999999999999908e+00 -4.6249663020061638e+00 +0.0000000000000000e+00 -7.0999556473161514e+00 -6.1221586179970814e-03 +0.0000000000000000e+00 +9.9998125941132332e-01
-7.1999999999999904e+00 -4.6243497748138482e+00 +0.0000000000000000e+00 -7.1999537467382160e+00 -6.2083852170131326e-03 +0.0000000000000000e+00 +9.9998072779078973e-01
-7.2999999999999901e+00 -4.6237246249650443e+00 +0.0000000000000000e+00 -7.2999517926264756e+00 -6.2946117475373414e-03 +0.0000000000000000e+00 +9.9998018873523098e-01
-7.3999999999999897e+00 -4.6230908524666683e+00 +0.0000000000000000e+00 -7.3999497842374282e+00 -6.3808382082507723e-03 +0.0000000000000000e+00 +9.9997964224466118e-01
-7.4999999999999893e+00 -4.6224484573257634e+00 +0.0000000000000000e+00 -7.4999477208275742e+00 -6.4670645979150653e-03 +0.0000000000000000e+00 +9.9997908831909421e-01
-7.5999999999999890e+00 -4.6217974395494927e+00 +0.0000000000000000e+00 -7.5999456016534142e+00 -6.5532909153725085e-03 +0.0000000000000000e+00 +9.9997852695854372e-01
-7.6999999999999886e+00 -4.6211377991451315e+00 +0.0000000000000000e+00 -7.6999434259714503e+00 -6.6395171595461100e-03 +0.0000000000000000e+00 +9.9997795816302304e-01
-7.7999999999999883e+00 -4.6204695361200594e+00 +0.0000000000000000e+00 -7.7999411930381868e+00 -6.7257433294396762e-03 +0.0000000000000000e+00 +9.9997738193254504e-01
-7.8999999999999879e+00 -4.6197926504817506e+00 +0.0000000000000000e+00 -7.8999389021101276e+00 -6.8119694241378899e-03 +0.0000000000000000e+00 +9.9997679826712238e-01
-7.9999999999999876e+00 -4.6191071422377670e+00 +0.0000000000000000e+00 -7.9999365524437795e+00 -6.8981954428063898e-03 +0.0000000000000000e+00 +9.9997620716676727e-01
-8.0999999999999872e+00 -4.6184130113957496e+00 +0.0000000000000000e+00 -8.0999341432956502e+00 -6.9844213846957052e-03 +0.0000000000000000e+00 +9.9997560863149138e-01
-8.1999999999999869e+00 -4.6177102579634086e+00 +0.0000000000000000e+00 -8.1999316739222472e+00 -7.0706472491837711e-03 +0.0000000000000000e+00 +9.9997500266130568e-01
-8.2999999999999865e+00 -4.6169988819485086e+00 +0.0000000000000000e+00 -8.2999291435800817e+00 -7.1568730358184058e-03 +0.0000000000000000e+00 +9.9997438925621984e-01
-8.3999999999999861e+00 -4.6162788833588495e+00 +0.0000000000000000e+00 -8.3999265515256614e+00 -7.2430987443210986e-03 +0.0000000000000000e+00 +9.9997376841624241e-01
-8.4999999999999858e+00 -4.6155502622022526e+00 +0.0000000000000000e+00 -8.4999238970154991e+00 -7.3293243745869178e-03 +0.0000000000000000e+00 +9.9997314014138039e-01
-8.5999999999999854e+00 -4.6148130184865384e+00 +0.0000000000000000e+00 -8.5999211793061079e+00 -7.4155499266844145e-03 +0.0000000000000000e+00 +9.9997250443163965e-01
-8.6999999999999851e+00 -4.6140671522195138e+00 +0.0000000000000000e+00 -8.6999183976539989e+00 -7.5017754008555272e-03 +0.0000000000000000e+00 +9.9997186128702431e-01
-8.7999999999999847e+00 -4.6133126634089514e+00 +0.0000000000000000e+00 -8.7999155513156850e+00 -7.5880007975154783e-03 +0.0000000000000000e+00 +9.9997121070753714e-01
-8.8999999999999844e+00 -4.6125495520625748e+00 +0.0000000000000000e+00 -8.8999126395476775e+00 -7.6742261172526721e-03 +0.0000000000000000e+00 +9.9997055269317903e-01
-8.9999999999999840e+00 -4.6117778181880400e+00 +0.0000000000000000e+00 -8.9999096616064911e+00 -7.7604513608285847e-03 +0.0000000000000000e+00 +9.9996988724394942e-01
-9.0999999999999837e+00 -4.6109974617929170e+00 +0.0000000000000000e+00 -9.0999066167486387e+00 -7.8466765291776534e-03 +0.0000000000000000e+00 +9.9996921435984576e-01
-9.1999999999999833e+00 -4.6102084828846754e+00 +0.0000000000000000e+00 -9.1999035042306314e+00 -7.9329016234071653e-03 +0.0000000000000000e+00 +9.9996853404086372e-01
-9.2999999999999829e+00 -4.6094108814706640e+00 +0.0000000000000000e+00 -9.2999003233089823e+00 -8.0191266447971355e-03 +0.0000000000000000e+00 +9.9996784628699709e-01
-9.3999999999999826e+00 -4.6086046575580957e+00 +0.0000000000000000e+00 -9.3998970732402007e+00 -8.1053515948001885e-03 +0.0000000000000000e+00 +9.9996715109823753e-01
-9.4999999999999822e+00 -4.6077898111540296e+00 +0.0000000000000000e+00 -9.4998937532807997e+00 -8.1915764750414340e-03 +0.0000000000000000e+00 +9.9996644847457472e-01
-9.5999999999999819e+00 -4.6069663422653528e+00 +0.0000000000000000e+00 -9.5998903626872867e+00 -8.2778012873183388e-03 +0.0000000000000000e+00 +9.9996573841599612e-01
-9.6999999999999815e+00 -4.6061342508987657e+00 +0.0000000000000000e+00 -9.6998869007161694e+00 -8.3640260336005964e-03 +0.0000000000000000e+00 +9.9996502092248707e-01
-9.7999999999999812e+00 -4.6052935370607617e+00 +0.0000000000000000e+00 -9.7998833666239538e+00 -8.4502507160299951e-03 +0.0000000000000000e+00 +9.9996429599403047e-01
-9.8999999999999808e+00 -4.6044442007576114e+00 +0.0000000000000000e+00 -9.8998797596671437e+00 -8.5364753369202746e-03 +0.0000000000000000e+00 +9.9996356363060690e-01
-9.9999999999999805e+00 -4.6035862419953464e+00 +0.0000000000000000e+00 -9.9998760791022416e+00 -8.6226998987569917e-03 +0.0000000000000000e+00 +9.9996282383219459e-01
-1.0099999999999980e+01 -4.6027196607797407e+00 +0.0000000000000000e+00 -1.0099872324185748e+01 -8.7089244041741211e-03 +0.0000000000000000e+00 +9.9996207659876934e-01
-1.0199999999999980e+01 -4.6018444571163073e+00 +0.0000000000000000e+00 -1.0199868494174160e+01 -8.7951488556972501e-03 +0.0000000000000000e+00 +9.9996132193030685e-01
-1.0299999999999979e+01 -4.6009606310103246e+00 +0.0000000000000000e+00 -1.0299864588323974e+01 -8.8813732554861788e-03 +0.0000000000000000e+00 +9.9996055982678500e-01
-1.0399999999999979e+01 -4.6000681824668748e+00 +0.0000000000000000e+00 -1.0399860605891682e+01 -8.9675976053114805e-03 +0.0000000000000000e+00 +9.9995979028818438e-01
-1.0499999999999979e+01 -4.5991671114908810e+00 +0.0000000000000000e+00 -1.0499856546133774e+01 -9.0538219065545433e-03 +0.0000000000000000e+00 +9.9995901331448822e-01
-1.0599999999999978e+01 -4.5982574180871492e+00 +0.0000000000000000e+00 -1.0599852408306742e+01 -9.1400461602076186e-03 +0.0000000000000000e+00 +9.9995822890568264e-01
-1.0699999999999978e+01 -4.5973391022604053e+00 +0.0000000000000000e+00 -1.0699848191667073e+01 -9.2262703668738663e-03 +0.0000000000000000e+00 +9.9995743706175699e-01
-1.0799999999999978e+01 -4.5964121640153337e+00 +0.0000000000000000e+00 -1.0799843895471255e+01 -9.3124945267674137e-03 +0.0000000000000000e+00 +9.9995663778270372e-01
-1.0899999999999977e+01 -4.5954766033566168e+00 +0.0000000000000000e+00 -1.0899839518975776e+01 -9.3987186397134007e-03 +0.0000000000000000e+00 +9.9995583106851871e-01
-1.0999999999999977e+01 -4.5945324202889744e+00 +0.0000000000000000e+00 -1.0999835061437121e+01 -9.4849427051480403e-03 +0.0000000000000000e+00 +9.9995501691920141e-01
-1.1099999999999977e+01 -4.5935796148172017e+00 +0.0000000000000000e+00 -1.1099830522111779e+01 -9.5711667221186764e-03 +0.0000000000000000e+00 +9.9995419533475516e-01
-1.1199999999999976e+01 -4.5926181869462095e+00 +0.0000000000000000e+00 -1.1199825900256235e+01 -9.6573906892838419e-03 +0.0000000000000000e+00 +9.9995336631518716e-01
-1.1299999999999976e+01 -4.5916481366810622e+00 +0.0000000000000000e+00 -1.1299821195126979e+01 -9.7436146049133272e-03 +0.0000000000000000e+00 +9.9995252986050853e-01
-1.1399999999999975e+01 -4.5906694640270151e+00 +0.0000000000000000e+00 -1.1399816405980500e+01 -9.8298384668882369e-03 +0.0000000000000000e+00 +9.9995168597073492e-01
-1.1499999999999975e+01 -4.5896821689895564e+00 +0.0000000000000000e+00 -1.1499811532073290e+01 -9.9160622727010681e-03 +0.0000000000000000e+00 +9.9995083464588608e-01
-1.1599999999999975e+01 -4.5886862515744431e+00 +0.0000000000000000e+00 -1.1599806572661842e+01 -1.0002286019455771e-02 +0.0000000000000000e+00 +9.9994997588598666e-01
-1.1699999999999974e+01 -4.5876817117877424e+00 +0.0000000000000000e+00 -1.1699801527002654e+01 -1.0088509703867828e-02 +0.0000000000000000e+00 +9.9994910969106587e-01
