# multipoles
# s[mm] polynom_b[n=0][T/m^n] polynom_b[n=1][T/m^n] polynom_b[n=2][T/m^n] polynom_b[n=3][T/m^n] polynom_b[n=4][T/m^n] polynom_b[n=5][T/m^n] polynom_b[n=6][T/m^n] 
+0.0000000000000000e+00 -1.2967719603293956e-01 +8.9405087211991802e-04 -4.8142500987025320e-02 -1.1010112527515075e+01 +5.3454211262904107e+02 +6.0476636207113901e+04 -4.1795402779724653e+05 
+1.0000000000000001e-01 -1.2967715785416153e-01 +8.9970928749652230e-04 -4.9415665058152730e-02 -1.1083288760843800e+01 +5.5205603288564498e+02 +6.0756006190037246e+04 -4.9605955856156838e+05 
+2.0000000000000001e-01 -1.2967711869743176e-01 +9.0469318372395644e-04 -5.0564294672336529e-02 -1.1148312292663594e+01 +5.6790740026233891e+02 +6.0994495775945528e+04 -5.6871942975351133e+05 
+3.0000000000000004e-01 -1.2967707866872330e-01 +9.0904833817589199e-04 -5.1591814390118389e-02 -1.1206075927150145e+01 +5.8214999307062737e+02 +6.1197451364467866e+04 -6.3607392287387385e+05 
+4.0000000000000002e-01 -1.2967703787399390e-01 +9.1282052457963402e-04 -5.2501650011222603e-02 -1.1257472368273636e+01 +5.9483761299114292e+02 +6.1370218832326238e+04 -6.9826343353236315e+05 
+5.0000000000000000e-01 -1.2967699641919034e-01 +9.1605551225394644e-04 -5.3297228072295359e-02 -1.1303394201405540e+01 +6.0602407516752316e+02 +6.1518143430405820e+04 -7.5542842371391063e+05 
+5.9999999999999998e-01 -1.2967695441025570e-01 +9.1879906826814188e-04 -5.3981975039916280e-02 -1.1344733957828941e+01 +6.1576319339653162e+02 +6.1646570153508350e+04 -8.0770935304624937e+05 
+6.9999999999999996e-01 -1.2967691195312009e-01 +9.2109695632027052e-04 -5.4559318391757844e-02 -1.1382384082508263e+01 +6.2410879940105963e+02 +6.1760843548768666e+04 -8.5524676662368129e+05 
+7.9999999999999993e-01 -1.2967686915372020e-01 +9.2299493735360609e-04 -5.5032684354387199e-02 -1.1417236956137939e+01 +6.3111470113315602e+02 +6.1866307847217511e+04 -8.9818110118998191e+05 
+8.9999999999999991e-01 -1.2967682611797834e-01 +9.2453877008813001e-04 -5.5405500364268931e-02 -1.1450184910884367e+01 +6.3683472764296937e+02 +6.1968307047313188e+04 -9.3665289240846061e+05 
+9.9999999999999989e-01 -1.2967678295182752e-01 +9.2577421158048640e-04 -5.5681192170961895e-02 -1.1482120249638911e+01 +6.4132267525099201e+02 +6.2072185029377863e+04 -9.7080252310756024e+05 
+1.0999999999999999e+00 -1.2967673976119676e-01 +9.2674701719334094e-04 -5.5863185562323676e-02 -1.1513935246213046e+01 +6.4463233957951832e+02 +6.2183285550031716e+04 -1.0007703733361282e+06 
+1.2000000000000000e+00 -1.2967669665202411e-01 +9.2750294022339900e-04 -5.5954904803769002e-02 -1.1546522136218821e+01 +6.4681748556974492e+02 +6.2306952189330434e+04 -1.0266966773344623e+06 
+1.3000000000000000e+00 -1.2967665373024617e-01 +9.2808773367869643e-04 -5.5959774051892730e-02 -1.1580773171729110e+01 +6.4793187456165663e+02 +6.2448528666125952e+04 -1.0487216521507506e+06 
+1.4000000000000001e+00 -1.2967661110181664e-01 +9.2854715008363676e-04 -5.5881214926097114e-02 -1.1617580617841243e+01 +6.4802921740491479e+02 +6.2613358818457113e+04 -1.0669852741304326e+06 
+1.5000000000000002e+00 -1.2967656887269297e-01 +9.2892694048790831e-04 -5.5722648375765980e-02 -1.1657836724066790e+01 +6.4716321039172772e+02 +6.2806786429941567e+04 -1.0816274496814376e+06 
+1.6000000000000003e+00 -1.2967652714884925e-01 +9.2927285740611440e-04 -5.5487492971202944e-02 -1.1702433812420537e+01 +6.4538750223775696e+02 +6.3034155740961345e+04 -1.0927878581301339e+06 
+1.7000000000000004e+00 -1.2967648603627033e-01 +9.2963065226973798e-04 -5.5179165731818490e-02 -1.1752264206227530e+01 +6.4275570954420493e+02 +6.3300811036586660e+04 -1.1006060237384327e+06 
+1.8000000000000005e+00 -1.2967644564095884e-01 +9.3004607746331963e-04 -5.4801081328276977e-02 -1.1808220289739809e+01 +6.3932140206169015e+02 +6.3612096985518037e+04 -1.1052212472368800e+06 
+1.9000000000000006e+00 -1.2967640606893499e-01 +9.3056488667780663e-04 -5.4356652020567171e-02 -1.1871194522187379e+01 +6.3513810032676554e+02 +6.3973358724871876e+04 -1.1067725914268433e+06 
+2.0000000000000004e+00 -1.2967636742624489e-01 +9.3123283461746156e-04 -5.3849286733310700e-02 -1.1942079425730153e+01 +6.3025925903487735e+02 +6.4389941747266865e+04 -1.1053988078353521e+06 
+2.1000000000000005e+00 -1.2967632979330818e-01 +9.3208044775175316e-04 -5.3283640490010734e-02 -1.2021383283040642e+01 +6.2475315022249674e+02 +6.4864983602642933e+04 -1.1013045210497146e+06 
+2.2000000000000006e+00 -1.2967629314021661e-01 +9.3307674055347078e-04 -5.2669494388148975e-02 -1.2108062159084655e+01 +6.1874514081292000e+02 +6.5392817242906087e+04 -1.0949273552992777e+06 
+2.3000000000000007e+00 -1.2967625740757485e-01 +9.3417513823924002e-04 -5.2017936569364216e-02 -1.2200677852675875e+01 +6.1237410263194602e+02 +6.5965562224098787e+04 -1.0867547723115589e+06 
+2.4000000000000008e+00 -1.2967622253597272e-01 +9.3532907050208663e-04 -5.1340056608128230e-02 -1.2297792285434166e+01 +6.0577892679173874e+02 +6.6575338722742148e+04 -1.0772742996240871e+06 
+2.5000000000000009e+00 -1.2967618846598988e-01 +9.3649197155111746e-04 -5.0646944810974863e-02 -1.2397967499204745e+01 +5.9909850908431372e+02 +6.7214267505640906e+04 -1.0669734570150317e+06 
+2.6000000000000010e+00 -1.2967615513819269e-01 +9.3761728079076072e-04 -4.9949692819763823e-02 -1.2499765673709215e+01 +5.9247176233264668e+02 +6.7874470021403336e+04 -1.0563398164379513e+06 
+2.7000000000000011e+00 -1.2967612249313659e-01 +9.3865844240960362e-04 -4.9259393166112352e-02 -1.2601749111309514e+01 +5.8603760689473586e+02 +6.8548068299758219e+04 -1.0458609538637310e+06 
+2.8000000000000012e+00 -1.2967609047135856e-01 +9.3956890785110007e-04 -4.8587140259251760e-02 -1.2702480305003721e+01 +5.7993498843772966e+02 +6.9227185329824933e+04 -1.0360245293522815e+06 
+2.9000000000000012e+00 -1.2967605901337501e-01 +9.4030213401431349e-04 -4.7944030582985270e-02 -1.2800521883938544e+01 +5.7430288120332409e+02 +6.9903944734623961e+04 -1.0273183006006472e+06 
+3.0000000000000013e+00 -1.2967602805968784e-01 +9.4081158547880536e-04 -4.7341162016052110e-02 -1.2894436672236697e+01 +5.6928027531181715e+02 +7.0570471092785941e+04 -1.0202300629176532e+06 
+3.1000000000000014e+00 -1.2967599755077391e-01 +9.4105073413554307e-04 -4.6789635012397836e-02 -1.2982787678697903e+01 +5.6500619710520300e+02 +7.1218889874111323e+04 -1.0152477385432632e+06 
+3.2000000000000015e+00 -1.2967596742708817e-01 +9.4097305960502166e-04 -4.6300552370819620e-02 -1.3064138102110512e+01 +5.6161970580600303e+02 +7.1841327448855431e+04 -1.0128593631486394e+06 
+3.3000000000000016e+00 -1.2967593762906096e-01 +9.4053205008780803e-04 -4.5885019379464112e-02 -1.3137051355090822e+01 +5.5925989441761828e+02 +7.2429911218275200e+04 -1.0135530841506998e+06 
+3.4000000000000017e+00 -1.2967590809709456e-01 +9.3968120292608234e-04 -4.5554144344315192e-02 -1.3200091074834658e+01 +5.5806589977939950e+02 +7.2976769657694254e+04 -1.0178172076163687e+06 
+3.5000000000000018e+00 -1.2967587877156531e-01 +9.3837402461926264e-04 -4.5319038351514615e-02 -1.3251821123927424e+01 +5.5817689762035957e+02 +7.3474032318519734e+04 -1.0261401726393808e+06 
+3.6000000000000019e+00 -1.2967584959281861e-01 +9.3656403151251338e-04 -4.5190815779252387e-02 -1.3290805602474443e+01 +5.5973211136976829e+02 +7.3913829872274626e+04 -1.0390105899631148e+06 
+3.7000000000000020e+00 -1.2967582050116300e-01 +9.3420475085489194e-04 -4.5180595085523294e-02 -1.3315608878551561e+01 +5.6287082646178283e+02 +7.4288294281711831e+04 -1.0569173069127453e+06 
+3.8000000000000020e+00 -1.2967579143688451e-01 +9.3124972001896024e-04 -4.5299496995865295e-02 -1.3324795562401878e+01 +5.6773235573002432e+02 +7.4589558638810704e+04 -1.0803492424521672e+06 
+3.9000000000000021e+00 -1.2967576234022374e-01 +9.2765248843306846e-04 -4.5558647334706756e-02 -1.3316930556643753e+01 +5.7445609206211179e+02 +7.4809757435465915e+04 -1.1097956323854690e+06 
+4.0000000000000018e+00 -1.2967573315139164e-01 +9.2336661839365953e-04 -4.5969174686559068e-02 -1.3290579024344945e+01 +5.8318146706907521e+02 +7.4941026037029456e+04 -1.1457458630223335e+06 
+4.1000000000000014e+00 -1.2967570382679086e-01 +9.1836501768800241e-04 -4.6537750482399165e-02 -1.3244750389578172e+01 +5.9398081028310673e+02 +7.4977463803076855e+04 -1.1884414241911161e+06 
+4.2000000000000011e+00 -1.2967567438806313e-01 +9.1269261942815633e-04 -4.7255468338968092e-02 -1.3180305853406772e+01 +6.0671322078155424e+02 +7.4921988545760163e+04 -1.2373865499567182e+06 
+4.3000000000000007e+00 -1.2967564487371289e-01 +9.0641156709296458e-04 -4.8109997042934505e-02 -1.3098604683180719e+01 +6.2119784777366760e+02 +7.4780025948227340e+04 -1.2919667397827206e+06 
+4.4000000000000004e+00 -1.2967561532225608e-01 +8.9958399942310615e-04 -4.9089005816667607e-02 -1.3001006045732296e+01 +6.3725387987983140e+02 +7.4557001073256586e+04 -1.3515677475747953e+06 
+4.5000000000000000e+00 -1.2967558577222027e-01 +8.9227204741854072e-04 -5.0180164209518402e-02 -1.2888868855521890e+01 +6.5470053395862590e+02 +7.4258337596578713e+04 -1.4155755214678741e+06 
+4.5999999999999996e+00 -1.2967555626214730e-01 +8.8453783310489574e-04 -5.1371141797323432e-02 -1.2763551739144486e+01 +6.7335705031521809e+02 +7.3889457613742488e+04 -1.4833761840611943e+06 
+4.6999999999999993e+00 -1.2967552683059344e-01 +8.7644346924303481e-04 -5.2649608270295557e-02 -1.2626413024640970e+01 +6.9304269609786706e+02 +7.3455781584990458e+04 -1.5543560537208498e+06 
+4.7999999999999989e+00 -1.2967549751613022e-01 +8.6805105857930157e-04 -5.4003233472738478e-02 -1.2478810720284105e+01 +7.1357676792510324e+02 +7.2962728224674021e+04 -1.6279016622025308e+06 
+4.8999999999999986e+00 -1.2967546835734617e-01 +8.5942269317425019e-04 -5.5419687288151859e-02 -1.2322102493500347e+01 +7.3477859106842163e+02 +7.2415714389330344e+04 -1.7033997549758721e+06 
+4.9999999999999982e+00 -1.2967543939284892e-01 +8.5062045341856578e-04 -5.6886639480828997e-02 -1.2157645642367541e+01 +7.5646751808211661e+02 +7.1820154922201720e+04 -1.7802372895050296e+06 
+5.0999999999999979e+00 -1.2967541066126578e-01 +8.4170640796737192e-04 -5.8391759792988225e-02 -1.1986797092950411e+01 +7.7846293246832658e+02 +7.1181462650919872e+04 -1.8578014578390853e+06 
+5.1999999999999975e+00 -1.2967538220124525e-01 +8.3274261222087472e-04 -5.9922717725171805e-02 -1.1810913353848212e+01 +8.0058424558629395e+02 +7.0505048130710100e+04 -1.9354796754060623e+06 
+5.2999999999999972e+00 -1.2967535405145802e-01 +8.2379110826766495e-04 -6.1467182716000414e-02 -1.1631350513684193e+01 +8.2265090240492236e+02 +6.9796319640822883e+04 -2.0126596147320643e+06 
+5.3999999999999968e+00 -1.2967532625059769e-01 +8.1491392408467598e-04 -6.3012823994025788e-02 -1.1449464219861682e+01 +8.4448237948521250e+02 +6.9060683078730159e+04 -2.0887291984999480e+06 
+5.4999999999999964e+00 -1.2967529883738566e-01 +8.0617307266861926e-04 -6.4547310179861830e-02 -1.1266609648993144e+01 +8.6589817953561897e+02 +6.8303541789454102e+04 -2.1630765798967560e+06 
+5.5999999999999961e+00 -1.2967527185056568e-01 +7.9763055139807056e-04 -6.6058310067194551e-02 -1.1084141489684480e+01 +8.8671784791561936e+02 +6.7530296481908066e+04 -2.2350902255015583e+06 
+5.6999999999999957e+00 -1.2967524532891159e-01 +7.8934834145128450e-04 -6.7533491673104948e-02 -1.0903413924650261e+01 +9.0676095539409005e+02 +6.6746345134169125e+04 -2.3041588363805972e+06 
+5.7999999999999954e+00 -1.2967521931122644e-01 +7.8138840706544726e-04 -6.8960522679092334e-02 -1.0725780608848439e+01 +9.2584710972115420e+02 +6.5957082879377471e+04 -2.3696714115624051e+06 
+5.8999999999999950e+00 -1.2967519383634171e-01 +7.7381269476613202e-04 -7.0327070381596093e-02 -1.0552594646393482e+01 +9.4379595454609694e+02 +6.5167901881423240e+04 -2.4310172431521788e+06 
+5.9999999999999947e+00 -1.2967516894309972e-01 +7.6668312929855016e-04 -7.1620805142528984e-02 -1.0385208667554203e+01 +9.6042722778749703e+02 +6.4384193944880259e+04 -2.4875860133889546e+06 
+6.0999999999999943e+00 -1.2967514464518021e-01 +7.6005079678006572e-04 -7.2831785480513875e-02 -1.0224800069081359e+01 +9.7559966117648833e+02 +6.3611138043114763e+04 -2.5388872517587468e+06 
+6.1999999999999940e+00 -1.2967512087519467e-01 +7.5392303478001002e-04 -7.3954856735917729e-02 -1.0071747808226457e+01 +9.8923796329803190e+02 +6.2851382361340620e+04 -2.5845577828273354e+06 
+6.2999999999999936e+00 -1.2967509754929754e-01 +7.4829524661320203e-04 -7.4984999315795747e-02 -9.9261911004831962e+00 +1.0012625724106032e+03 +6.2106516381022564e+04 -2.6241756621970893e+06 
+6.3999999999999932e+00 -1.2967507458366004e-01 +7.4316282578486747e-04 -7.5917189887609593e-02 -9.7882688720046023e+00 +1.0115938415961758e+03 +6.1378127389080699e+04 -2.6573184653600701e+06 
+6.4999999999999929e+00 -1.2967505189447043e-01 +7.3852116241628670e-04 -7.6746402500616345e-02 -9.6581199897508903e+00 +1.0201520709092491e+03 +6.0667802300339528e+04 -2.6835635056014536e+06 
+6.5999999999999925e+00 -1.2967502939792946e-01 +7.3436564424139402e-04 -7.7467608950857941e-02 -9.5358832936041509e+00 +1.0268575129839085e+03 +5.9977127841525376e+04 -2.7024878570480263e+06 
+6.6999999999999922e+00 -1.2967500701025836e-01 +7.3069165616611678e-04 -7.8075777803273017e-02 -9.4216975850134155e+00 +1.0316303541040452e+03 +5.9307690483829312e+04 -2.7136682639034227e+06 
+6.7999999999999918e+00 -1.2967498464768668e-01 +7.2749457948923933e-04 -7.8565875814484681e-02 -9.3157016058237740e+00 +1.0343907407126662e+03 +5.8661076316435960e+04 -2.7166812646815619e+06 
+6.8999999999999915e+00 -1.2967496222646382e-01 +7.2476979385504279e-04 -7.8932866513847816e-02 -9.2180340994033649e+00 +1.0350587522965213e+03 +5.8038871404260623e+04 -2.7111030631945673e+06 
+6.9999999999999911e+00 -1.2967493966285937e-01 +7.2251267537711840e-04 -7.9171710023739461e-02 -9.1288337559836652e+00 +1.0335543970867541e+03 +5.7442661464213459e+04 -2.6965095061156135e+06 
+7.0999999999999908e+00 -1.2967491687315200e-01 +7.2071859735340521e-04 -7.9277364390259550e-02 -9.0482392377171266e+00 +1.0297976365125724e+03 +5.6874032014284399e+04 -2.6724761959570870e+06 
+7.1999999999999904e+00 -1.2967489377364344e-01 +7.1938293055748151e-04 -7.9244783831297044e-02 -8.9763891870996702e+00 +1.0237083520927288e+03 +5.6334568414454785e+04 -2.6385783352913074e+06 
+7.2999999999999901e+00 -1.2967487028065136e-01 +7.1850104279081546e-04 -7.9068919574411520e-02 -8.9134222196199513e+00 +1.0152063606107691e+03 +5.5825855832353882e+04 -2.5943907962893439e+06 
+7.3999999999999897e+00 -1.2967484631051249e-01 +7.1806829924308353e-04 -7.8744719362320151e-02 -8.8594769319473610e+00 +1.0042114038208248e+03 +5.5349479276458456e+04 -2.5394880695824265e+06 
+7.4999999999999893e+00 -1.2967482177958065e-01 +7.1808006221291240e-04 -7.8267127677337470e-02 -8.8146919008778521e+00 +9.9064315275828812e+02 +5.4907023602379326e+04 -2.4734442847588607e+06 
+7.5999999999999890e+00 -1.2967479660422834e-01 +7.1853169165458854e-04 -7.7631085458914159e-02 -8.7792056971502106e+00 +9.7442120128354225e+02 +5.4500073578619267e+04 -2.3958331768425885e+06 
+7.6999999999999886e+00 -1.2967477070085096e-01 +7.1941854366996179e-04 -7.6831529601251294e-02 -8.7531568461500999e+00 +9.5546505664069127e+02 +5.4130213665321331e+04 -2.3062280417052689e+06 
+7.7999999999999883e+00 -1.2967474398586057e-01 +7.2073597286378998e-04 -7.5863393513688648e-02 -8.7366838989075966e+00 +9.3369414893170870e+02 +5.3799028422753567e+04 -2.2042017782292566e+06 
+7.8999999999999879e+00 -1.2967471637569047e-01 +7.2247933045692793e-04 -7.4721606710644511e-02 -8.7299253777547872e+00 +9.0902782349110646e+02 +5.3508102192826751e+04 -2.0893268518895244e+06 
+7.9999999999999876e+00 -1.2967468778679234e-01 +7.2464395788086693e-04 -7.3401097097518686e-02 -8.7330199329815166e+00 +8.8138534205403880e+02 +5.3259018160997723e+04 -1.9611753899181637e+06 
+8.0999999999999872e+00 -1.2967465816605864e-01 +7.2721053959161276e-04 -7.1901116241627178e-02 -8.7458915563301165e+00 +8.5075893522699903e+02 +5.3052376110124998e+04 -1.8196504838082308e+06 
+8.1999999999999869e+00 -1.2967462756890608e-01 +7.3013073064492114e-04 -7.0237397582974481e-02 -8.7679170874798800e+00 +8.1742617966964633e+02 +5.2886812231753480e+04 -1.6659783873919803e+06 
+8.2999999999999865e+00 -1.2967459607444221e-01 +7.3335637495266289e-04 -6.8430043906320570e-02 -8.7984278531650890e+00 +7.8173967874140487e+02 +5.2761127704064456e+04 -1.5017498848612951e+06 
+8.3999999999999861e+00 -1.2967456376173755e-01 +7.3683934960497072e-04 -6.6499161280540398e-02 -8.8367561714780294e+00 +7.4405205824040866e+02 +5.2674134071026347e+04 -1.3285561755192948e+06 
+8.4999999999999858e+00 -1.2967453070984108e-01 +7.4053154828513052e-04 -6.4464854635428726e-02 -8.8822348856042641e+00 +7.0471588844641917e+02 +5.2624646123811683e+04 -1.1479881380855539e+06 
+8.5999999999999854e+00 -1.2967449699777331e-01 +7.4438488216867194e-04 -6.2347228461589022e-02 -8.9341973908883858e+00 +6.6408369642131993e+02 +5.2611482062268355e+04 -9.6163638753121975e+05 
+8.6999999999999851e+00 -1.2967446270452354e-01 +7.4835128046512906e-04 -6.0166387018198132e-02 -8.9919776494968655e+00 +6.2250796823616588e+02 +5.2633463581219832e+04 -7.7109128162350017e+05 
+8.7999999999999847e+00 -1.2967442790905293e-01 +7.5238269053500549e-04 -5.7942433822919567e-02 -9.0549101961560883e+00 +5.8034113859888555e+02 +5.2689415912228535e+04 -5.7794287140725134e+05 
+8.8999999999999844e+00 -1.2967439269028969e-01 +7.5643107909551032e-04 -5.5695472177059231e-02 -9.1223301751058639e+00 +5.3793559965607824e+02 +5.2778168046950224e+04 -3.8378094030518964e+05 
+8.9999999999999840e+00 -1.2967435712713246e-01 +7.6044843244691903e-04 -5.3445604652333244e-02 -9.1935733460098401e+00 +4.9564369041655317e+02 +5.2898552772556897e+04 -1.9019495300774244e+05 
+9.0999999999999837e+00 -1.2967432129844833e-01 +7.6438675685255603e-04 -5.1212933063095836e-02 -9.2679760954227675e+00 +4.5381769446219539e+02 +5.3049406741978659e+04 +1.2259587102060721e+03 
+9.1999999999999833e+00 -1.2967428528306796e-01 +7.6819807956286941e-04 -4.9017559156968281e-02 -9.3448754702367616e+00 +4.1280985265466734e+02 +5.3229570681019875e+04 +1.8889293675531526e+05 
+9.2999999999999829e+00 -1.2967424915978740e-01 +7.7183444912571817e-04 -4.6879584142294421e-02 -9.4236091853668515e+00 +3.7297235280194292e+02 +5.3437889433172044e+04 +3.7121744751323905e+05 
+9.3999999999999826e+00 -1.2967421300736970e-01 +7.7524793602491390e-04 -4.4819108418620912e-02 -9.5035156433554651e+00 +3.3465732329897014e+02 +5.3673212077815362e+04 +5.4661131475321937e+05 
+9.4999999999999822e+00 -1.2967417690454133e-01 +7.7839063285607593e-04 -4.2856231843138512e-02 -9.5839339407291426e+00 +2.9821683730411218e+02 +5.3934391975538223e+04 +7.1348670081865310e+05 
+9.5999999999999819e+00 -1.2967414092998586e-01 +7.8121465579214478e-04 -4.1011054523988705e-02 -9.6642039118798078e+00 +2.6400292677879662e+02 +5.4220287026242055e+04 +8.7025604246085067e+05 
+9.6999999999999815e+00 -1.2967410516235722e-01 +7.8367214412535479e-04 -3.9303674914296281e-02 -9.7436661174032206e+00 +2.3236754491423014e+02 +5.4529759612382790e+04 +1.0153322308288486e+06 
+9.7999999999999812e+00 -1.2967406968026479e-01 +7.8571526126899492e-04 -3.7754191661447896e-02 -9.8216618709203871e+00 +2.0366260050710713e+02 +5.4861676748444792e+04 +1.1471284501910624e+06 
+9.8999999999999808e+00 -1.2967403456227539e-01 +7.8729619588784137e-04 -3.6382703128255131e-02 -9.8975332762646833e+00 +1.7823994721778610e+02 +5.5214910312920678e+04 +1.2640582319163638e+06 
+9.9999999999999805e+00 -1.2967399988697356e-01 +7.8836716909301508e-04 -3.5209294503105379e-02 -9.9706217951069576e+00 +1.5645132355972947e+02 +5.5588328248548074e+04 +1.3645354098684385e+06 
+1.0099999999999980e+01 -1.2967396573297563e-01 +7.8890054419284252e-04 -3.4246645019386457e-02 -1.0040374209284298e+01 +1.3853478758640455e+02 +5.5980531387107316e+04 +1.4474311166028804e+06 
