# trajectory
# s[mm] rx[mm] ry[mm] rz[mm] px[rad] py[rad] pz[rad]
0.0000000000000000e+00 +4.6467000000000001e+00 +0.0000000000000000e+00 +0.0000000000000000e+00 +0.0000000000000000e+00 +0.0000000000000000e+00 +1.0000000000000000e+00
1.0000000000000001e-01 +4.6466961011236876e+00 +0.0000000000000000e+00 +9.9999999898658432e-02 -7.7977527078122740e-05 +0.0000000000000000e+00 +9.9999999695975261e-01
2.0000000000000001e-01 +4.6466844044944011e+00 +0.0000000000000000e+00 +1.9999999918926734e-01 -1.5595505963080766e-04 +0.0000000000000000e+00 +9.9999998783900956e-01
3.0000000000000004e-01 +4.6466649101115527e+00 +0.0000000000000000e+00 +2.9999999726377707e-01 -2.3393259843622124e-04 +0.0000000000000000e+00 +9.9999997263776930e-01
4.0000000000000002e-01 +4.6466376179744859e+00 +0.0000000000000000e+00 +3.9999999351413784e-01 -3.1191014407856178e-04 +0.0000000000000000e+00 +9.9999995135602981e-01
5.0000000000000000e-01 +4.6466025280824956e+00 +0.0000000000000000e+00 +4.9999998733229961e-01 -3.8988769694806605e-04 +0.0000000000000000e+00 +9.9999992399378901e-01
5.9999999999999998e-01 +4.6465596404348481e+00 +0.0000000000000000e+00 +5.9999997811021211e-01 -4.6786525724101271e-04 +0.0000000000000000e+00 +9.9999989055104455e-01
6.9999999999999996e-01 +4.6465089550307992e+00 +0.0000000000000000e+00 +6.9999996523982499e-01 -5.4584282495972287e-04 +0.0000000000000000e+00 +9.9999985102779410e-01
7.9999999999999993e-01 +4.6464504718696142e+00 +0.0000000000000000e+00 +7.9999994811308739e-01 -6.2382039991255725e-04 +0.0000000000000000e+00 +9.9999980542403533e-01
8.9999999999999991e-01 +4.6463841909505881e+00 +0.0000000000000000e+00 +8.9999992612194835e-01 -7.0179798171391078e-04 +0.0000000000000000e+00 +9.9999975373976602e-01
9.9999999999999989e-01 +4.6463101122730626e+00 +0.0000000000000000e+00 +9.9999989865835681e-01 -7.7977556978420335e-04 +0.0000000000000000e+00 +9.9999969597498406e-01
1.0999999999999999e+00 +4.6462282358364480e+00 +0.0000000000000000e+00 +1.0999998651142613e+00 -8.5775316334986830e-04 +0.0000000000000000e+00 +9.9999963212968757e-01
1.2000000000000000e+00 +4.6461385616402415e+00 +0.0000000000000000e+00 +1.1999998248816104e+00 -9.3573076144333738e-04 +0.0000000000000000e+00 +9.9999956220387509e-01
1.3000000000000000e+00 +4.6460410896840472e+00 +0.0000000000000000e+00 +1.2999997773523524e+00 -1.0137083629030228e-03 +0.0000000000000000e+00 +9.9999948619754542e-01
1.4000000000000001e+00 +4.6459358199675940e+00 +0.0000000000000000e+00 +1.3999997219184355e+00 -1.0916859663732965e-03 +0.0000000000000000e+00 +9.9999940411069776e-01
1.5000000000000002e+00 +4.6458227524907567e+00 +0.0000000000000000e+00 +1.4999996579718080e+00 -1.1696635703044652e-03 +0.0000000000000000e+00 +9.9999931594333213e-01
1.6000000000000003e+00 +4.6457018872535754e+00 +0.0000000000000000e+00 +1.5999995849044180e+00 -1.2476411729527440e-03 +0.0000000000000000e+00 +9.9999922169544886e-01
1.7000000000000004e+00 +4.6455732242562728e+00 +0.0000000000000000e+00 +1.6999995021082137e+00 -1.3256187723802262e-03 +0.0000000000000000e+00 +9.9999912136704916e-01
1.8000000000000005e+00 +4.6454367634992773e+00 +0.0000000000000000e+00 +1.7999994089751439e+00 -1.4035963664548493e-03 +0.0000000000000000e+00 +9.9999901495813492e-01
1.9000000000000006e+00 +4.6452925049832379e+00 +0.0000000000000000e+00 +1.8999993048971571e+00 -1.4815739528503595e-03 +0.0000000000000000e+00 +9.9999890246870882e-01
2.0000000000000004e+00 +4.6451404487090473e+00 +0.0000000000000000e+00 +1.9999991892662021e+00 -1.5595515290462720e-03 +0.0000000000000000e+00 +9.9999878389877461e-01
2.1000000000000005e+00 +4.6449805946778593e+00 +0.0000000000000000e+00 +2.0999990614742288e+00 -1.6375290923420257e-03 +0.0000000000000000e+00 +9.9999865924833697e-01
2.2000000000000006e+00 +4.6448129428911002e+00 +0.0000000000000000e+00 +2.1999989209131865e+00 -1.7155066400131138e-03 +0.0000000000000000e+00 +9.9999852851740134e-01
2.3000000000000007e+00 +4.6446374933504639e+00 +0.0000000000000000e+00 +2.2999987669750261e+00 -1.7934841694672349e-03 +0.0000000000000000e+00 +9.9999839170597360e-01
2.4000000000000008e+00 +4.6444542460578955e+00 +0.0000000000000000e+00 +2.3999985990516985e+00 -1.8714616782584785e-03 +0.0000000000000000e+00 +9.9999824881406008e-01
2.5000000000000009e+00 +4.6442632010155780e+00 +0.0000000000000000e+00 +2.4999984165351554e+00 -1.9494391640873137e-03 +0.0000000000000000e+00 +9.9999809984166743e-01
2.6000000000000010e+00 +4.6440643582259158e+00 +0.0000000000000000e+00 +2.5999982188173494e+00 -2.0274166248005795e-03 +0.0000000000000000e+00 +9.9999794478880277e-01
2.7000000000000011e+00 +4.6438577176915219e+00 +0.0000000000000000e+00 +2.6999980052902339e+00 -2.1053940583914766e-03 +0.0000000000000000e+00 +9.9999778365547332e-01
2.8000000000000012e+00 +4.6436432794152038e+00 +0.0000000000000000e+00 +2.7999977753457626e+00 -2.1833714629995592e-03 +0.0000000000000000e+00 +9.9999761644168661e-01
2.9000000000000012e+00 +4.6434210433999459e+00 +0.0000000000000000e+00 +2.8999975283758896e+00 -2.2613488369107285e-03 +0.0000000000000000e+00 +9.9999744314745020e-01
3.0000000000000013e+00 +4.6431910096488975e+00 +0.0000000000000000e+00 +2.9999972637725709e+00 -2.3393261785572281e-03 +0.0000000000000000e+00 +9.9999726377277176e-01
3.1000000000000014e+00 +4.6429531781653575e+00 +0.0000000000000000e+00 +3.0999969809277625e+00 -2.4173034865176391e-03 +0.0000000000000000e+00 +9.9999707831765894e-01
3.2000000000000015e+00 +4.6427075489527594e+00 +0.0000000000000000e+00 +3.1999966792334216e+00 -2.4952807595168768e-03 +0.0000000000000000e+00 +9.9999688678211951e-01
3.3000000000000016e+00 +4.6424541220146569e+00 +0.0000000000000000e+00 +3.2999963580815059e+00 -2.5732579964261892e-03 +0.0000000000000000e+00 +9.9999668916616113e-01
3.4000000000000017e+00 +4.6421928973547102e+00 +0.0000000000000000e+00 +3.3999960168639736e+00 -2.6512351962631555e-03 +0.0000000000000000e+00 +9.9999648546979114e-01
3.5000000000000018e+00 +4.6419238749766683e+00 +0.0000000000000000e+00 +3.4999956549727838e+00 -2.7292123581916863e-03 +0.0000000000000000e+00 +9.9999627569301675e-01
3.6000000000000019e+00 +4.6416470548843582e+00 +0.0000000000000000e+00 +3.5999952717998966e+00 -2.8071894815220252e-03 +0.0000000000000000e+00 +9.9999605983584505e-01
3.7000000000000020e+00 +4.6413624370816686e+00 +0.0000000000000000e+00 +3.6999948667372728e+00 -2.8851665657107506e-03 +0.0000000000000000e+00 +9.9999583789828261e-01
3.8000000000000020e+00 +4.6410700215725340e+00 +0.0000000000000000e+00 +3.7999944391768734e+00 -2.9631436103607785e-03 +0.0000000000000000e+00 +9.9999560988033576e-01
3.9000000000000021e+00 +4.6407698083609228e+00 +0.0000000000000000e+00 +3.8999939885106607e+00 -3.0411206152213687e-03 +0.0000000000000000e+00 +9.9999537578201025e-01
4.0000000000000018e+00 +4.6404617974508202e+00 +0.0000000000000000e+00 +3.9999935141305967e+00 -3.1190975801881284e-03 +0.0000000000000000e+00 +9.9999513560331155e-01
4.1000000000000014e+00 +4.6401459888462142e+00 +0.0000000000000000e+00 +4.0999930154286446e+00 -3.1970745052976308e-03 +0.0000000000000000e+00 +9.9999488934424452e-01
4.2000000000000011e+00 +4.6398223825510856e+00 +0.0000000000000000e+00 +4.1999924917967668e+00 -3.2750513906681352e-03 +0.0000000000000000e+00 +9.9999463700481350e-01
4.3000000000000007e+00 +4.6394909785694010e+00 +0.0000000000000000e+00 +4.2999919426269280e+00 -3.3530282364403236e-03 +0.0000000000000000e+00 +9.9999437858502283e-01
4.4000000000000004e+00 +4.6391517769051127e+00 +0.0000000000000000e+00 +4.3999913673110926e+00 -3.4310050427719604e-03 +0.0000000000000000e+00 +9.9999411408487637e-01
4.5000000000000000e+00 +4.6388047775621555e+00 +0.0000000000000000e+00 +4.4999907652412245e+00 -3.5089818098379510e-03 +0.0000000000000000e+00 +9.9999384350437803e-01
4.5999999999999996e+00 +4.6384499805444470e+00 +0.0000000000000000e+00 +4.5999901358092892e+00 -3.5869585378304003e-03 +0.0000000000000000e+00 +9.9999356684353136e-01
4.6999999999999993e+00 +4.6380873858558846e+00 +0.0000000000000000e+00 +4.6999894784072520e+00 -3.6649352269586769e-03 +0.0000000000000000e+00 +9.9999328410233967e-01
4.7999999999999989e+00 +4.6377169935003435e+00 +0.0000000000000000e+00 +4.7999887924270785e+00 -3.7429118774494801e-03 +0.0000000000000000e+00 +9.9999299528080599e-01
4.8999999999999986e+00 +4.6373388034816747e+00 +0.0000000000000000e+00 +4.8999880772607352e+00 -3.8208884895469114e-03 +0.0000000000000000e+00 +9.9999270037893317e-01
4.9999999999999982e+00 +4.6369528158037054e+00 +0.0000000000000000e+00 +4.9999873323001873e+00 -3.8988650635125486e-03 +0.0000000000000000e+00 +9.9999239939672391e-01
5.0999999999999979e+00 +4.6365590304702344e+00 +0.0000000000000000e+00 +5.0999865569374023e+00 -3.9768415996255238e-03 +0.0000000000000000e+00 +9.9999209233418040e-01
5.1999999999999975e+00 +4.6361574474850320e+00 +0.0000000000000000e+00 +5.1999857505643456e+00 -4.0548180981826026e-03 +0.0000000000000000e+00 +9.9999177919130477e-01
5.2999999999999972e+00 +4.6357480668518392e+00 +0.0000000000000000e+00 +5.2999849125729854e+00 -4.1327945594982728e-03 +0.0000000000000000e+00 +9.9999145996809868e-01
5.3999999999999968e+00 +4.6353308885743632e+00 +0.0000000000000000e+00 +5.3999840423552881e+00 -4.2107709839048300e-03 +0.0000000000000000e+00 +9.9999113466456369e-01
5.4999999999999964e+00 +4.6349059126562775e+00 +0.0000000000000000e+00 +5.4999831393032208e+00 -4.2887473717524690e-03 +0.0000000000000000e+00 +9.9999080328070100e-01
5.5999999999999961e+00 +4.6344731391012193e+00 +0.0000000000000000e+00 +5.5999822028087509e+00 -4.3667237234093813e-03 +0.0000000000000000e+00 +9.9999046581651152e-01
5.6999999999999957e+00 +4.6340325679127892e+00 +0.0000000000000000e+00 +5.6999812322638457e+00 -4.4447000392618518e-03 +0.0000000000000000e+00 +9.9999012227199591e-01
5.7999999999999954e+00 +4.6335841990945470e+00 +0.0000000000000000e+00 +5.7999802270604723e+00 -4.5226763197143624e-03 +0.0000000000000000e+00 +9.9998977264715438e-01
5.8999999999999950e+00 +4.6331280326500117e+00 +0.0000000000000000e+00 +5.8999791865905991e+00 -4.6006525651896973e-03 +0.0000000000000000e+00 +9.9998941694198684e-01
5.9999999999999947e+00 +4.6326640685826597e+00 +0.0000000000000000e+00 +5.9999781102461922e+00 -4.6786287761290523e-03 +0.0000000000000000e+00 +9.9998905515649295e-01
6.0999999999999943e+00 +4.6321923068959219e+00 +0.0000000000000000e+00 +6.0999769974192199e+00 -4.7566049529861555e-03 +0.0000000000000000e+00 +9.9998868729067203e-01
6.1999999999999940e+00 +4.6317127475931850e+00 +0.0000000000000000e+00 +6.1999758475016495e+00 -4.8345810961614158e-03 +0.0000000000000000e+00 +9.9998831334452343e-01
6.2999999999999936e+00 +4.6312253906778027e+00 +0.0000000000000000e+00 +6.2999746598854474e+00 -4.9125572059359190e-03 +0.0000000000000000e+00 +9.9998793331804692e-01
6.3999999999999932e+00 +4.6307302361531057e+00 +0.0000000000000000e+00 +6.3999734339625816e+00 -4.9905332824653299e-03 +0.0000000000000000e+00 +9.9998754721124250e-01
6.4999999999999929e+00 +4.6302272840224168e+00 +0.0000000000000000e+00 +6.4999721691250185e+00 -5.0685093257797839e-03 +0.0000000000000000e+00 +9.9998715502411073e-01
6.5999999999999925e+00 +4.6297165342890603e+00 +0.0000000000000000e+00 +6.5999708647647264e+00 -5.1464853357837759e-03 +0.0000000000000000e+00 +9.9998675675665272e-01
6.6999999999999922e+00 +4.6291979869563775e+00 +0.0000000000000000e+00 +6.6999695202736715e+00 -5.2244613122560410e-03 +0.0000000000000000e+00 +9.9998635240887013e-01
6.7999999999999918e+00 +4.6286716420277383e+00 +0.0000000000000000e+00 +6.7999681350438230e+00 -5.3024372548494342e-03 +0.0000000000000000e+00 +9.9998594198076540e-01
6.8999999999999915e+00 +4.6281374995065523e+00 +0.0000000000000000e+00 +6.8999667084671481e+00 -5.3804131630908010e-03 +0.0000000000000000e+00 +9.9998552547234143e-01
6.9999999999999911e+00 +4.6275955593962843e+00 +0.0000000000000000e+00 +6.9999652399356149e+00 -5.4583890363808455e-03 +0.0000000000000000e+00 +9.9998510288360187e-01
7.0999999999999908e+00 +4.6270458217004649e+00 +0.0000000000000000e+00 +7.0999637288411916e+00 -5.5363648739939911e-03 +0.0000000000000000e+00 +9.9998467421455128e-01
7.1999999999999904e+00 +4.6264882864227026e+00 +0.0000000000000000e+00 +7.1999621745758482e+00 -5.6143406750782388e-03 +0.0000000000000000e+00 +9.9998423946519499e-01
7.2999999999999901e+00 +4.6259229535666986e+00 +0.0000000000000000e+00 +7.2999605765315536e+00 -5.6923164386550188e-03 +0.0000000000000000e+00 +9.9998379863553910e-01
7.3999999999999897e+00 +4.6253498231362578e+00 +0.0000000000000000e+00 +7.3999589341002796e+00 -5.7702921636190365e-03 +0.0000000000000000e+00 +9.9998335172559083e-01
7.4999999999999893e+00 +4.6247688951353023e+00 +0.0000000000000000e+00 +7.4999572466739961e+00 -5.8482678487381135e-03 +0.0000000000000000e+00 +9.9998289873535817e-01
7.5999999999999890e+00 +4.6241801695678832e+00 +0.0000000000000000e+00 +7.5999555136446757e+00 -5.9262434926530255e-03 +0.0000000000000000e+00 +9.9998243966485034e-01
7.6999999999999886e+00 +4.6235836464381945e+00 +0.0000000000000000e+00 +7.6999537344042910e+00 -6.0042190938773337e-03 +0.0000000000000000e+00 +9.9998197451407744e-01
7.7999999999999883e+00 +4.6229793257505847e+00 +0.0000000000000000e+00 +7.7999519083448163e+00 -6.0821946507972095e-03 +0.0000000000000000e+00 +9.9998150328305080e-01
7.8999999999999879e+00 +4.6223672075095701e+00 +0.0000000000000000e+00 +7.8999500348582270e+00 -6.1601701616712592e-03 +0.0000000000000000e+00 +9.9998102597178296e-01
7.9999999999999876e+00 +4.6217472917198474e+00 +0.0000000000000000e+00 +7.9999481133364991e+00 -6.2381456246303367e-03 +0.0000000000000000e+00 +9.9998054258028757e-01
8.0999999999999872e+00 +4.6211195783863070e+00 +0.0000000000000000e+00 +8.0999461431716107e+00 -6.3161210376853237e-03 +0.0000000000000000e+00 +9.9998005310857963e-01
8.1999999999999869e+00 +4.6204840675140408e+00 +0.0000000000000000e+00 +8.1999441237555413e+00 -6.3940963988147409e-03 +0.0000000000000000e+00 +9.9997955755667478e-01
8.2999999999999865e+00 +4.6198407591083406e+00 +0.0000000000000000e+00 +8.2999420544802724e+00 -6.4720717060526099e-03 +0.0000000000000000e+00 +9.9997905592458891e-01
8.3999999999999861e+00 +4.6191896531746908e+00 +0.0000000000000000e+00 +8.3999399347377874e+00 -6.5500469574965347e-03 +0.0000000000000000e+00 +9.9997854821233789e-01
8.4999999999999858e+00 +4.6185307497187624e+00 +0.0000000000000000e+00 +8.4999377639200695e+00 -6.6280221513077926e-03 +0.0000000000000000e+00 +9.9997803441993771e-01
8.5999999999999854e+00 +4.6178640487464095e+00 +0.0000000000000000e+00 +8.5999355414191037e+00 -6.7059972857114293e-03 +0.0000000000000000e+00 +9.9997751454740436e-01
8.6999999999999851e+00 +4.6171895502636575e+00 +0.0000000000000000e+00 +8.6999332666268785e+00 -6.7839723589963544e-03 +0.0000000000000000e+00 +9.9997698859475392e-01
8.7999999999999847e+00 +4.6165072542767023e+00 +0.0000000000000000e+00 +8.7999309389353844e+00 -6.8619473695154427e-03 +0.0000000000000000e+00 +9.9997645656200240e-01
8.8999999999999844e+00 +4.6158171607918996e+00 +0.0000000000000000e+00 +8.8999285577366098e+00 -6.9399223156856402e-03 +0.0000000000000000e+00 +9.9997591844916567e-01
8.9999999999999840e+00 +4.6151192698157608e+00 +0.0000000000000000e+00 +8.9999261224225489e+00 -7.0178971959880682e-03 +0.0000000000000000e+00 +9.9997537425625971e-01
9.0999999999999837e+00 +4.6144135813549463e+00 +0.0000000000000000e+00 +9.0999236323851935e+00 -7.0958720089681375e-03 +0.0000000000000000e+00 +9.9997482398330029e-01
9.1999999999999833e+00 +4.6137000954162577e+00 +0.0000000000000000e+00 +9.1999210870165413e+00 -7.1738467532356607e-03 +0.0000000000000000e+00 +9.9997426763030317e-01
9.2999999999999829e+00 +4.6129788120066335e+00 +0.0000000000000000e+00 +9.2999184857085879e+00 -7.2518214274649708e-03 +0.0000000000000000e+00 +9.9997370519728379e-01
9.3999999999999826e+00 +4.6122497311331410e+00 +0.0000000000000000e+00 +9.3999158278533308e+00 -7.3297960303950419e-03 +0.0000000000000000e+00 +9.9997313668425758e-01
9.4999999999999822e+00 +4.6115128528029707e+00 +0.0000000000000000e+00 +9.4999131128427727e+00 -7.4077705608296155e-03 +0.0000000000000000e+00 +9.9997256209123964e-01
9.5999999999999819e+00 +4.6107681770234290e+00 +0.0000000000000000e+00 +9.5999103400689130e+00 -7.4857450176373250e-03 +0.0000000000000000e+00 +9.9997198141824495e-01
9.6999999999999815e+00 +4.6100157038019329e+00 +0.0000000000000000e+00 +9.6999075089237561e+00 -7.5637193997518297e-03 +0.0000000000000000e+00 +9.9997139466528828e-01
9.7999999999999812e+00 +4.6092554331460018e+00 +0.0000000000000000e+00 +9.7999046187993066e+00 -7.6416937061719488e-03 +0.0000000000000000e+00 +9.9997080183238396e-01
9.8999999999999808e+00 +4.6084873650632527e+00 +0.0000000000000000e+00 +9.8999016690875692e+00 -7.7196679359617998e-03 +0.0000000000000000e+00 +9.9997020291954619e-01
9.9999999999999805e+00 +4.6077114995613933e+00 +0.0000000000000000e+00 +9.9998986591805519e+00 -7.7976420882509374e-03 +0.0000000000000000e+00 +9.9996959792678874e-01
1.0099999999999980e+01 +4.6069278366482136e+00 +0.0000000000000000e+00 +1.0099895588470263e+01 -7.8756161622351613e-03 +0.0000000000000000e+00 +9.9996898685412494e-01
1.0199999999999980e+01 +4.6061363763315812e+00 +0.0000000000000000e+00 +1.0199892456348714e+01 -7.9535901571839394e-03 +0.0000000000000000e+00 +9.9996836970156788e-01
1.0299999999999979e+01 +4.6053371186194330e+00 +0.0000000000000000e+00 +1.0299889262207914e+01 -8.0315640724477628e-03 +0.0000000000000000e+00 +9.9996774646913000e-01
1.0399999999999979e+01 +4.6045300635197668e+00 +0.0000000000000000e+00 +1.0399886005439878e+01 -8.1095379074588164e-03 +0.0000000000000000e+00 +9.9996711715682307e-01
1.0499999999999979e+01 +4.6037152110406323e+00 +0.0000000000000000e+00 +1.0499882685436617e+01 -8.1875116617309788e-03 +0.0000000000000000e+00 +9.9996648176465852e-01
1.0599999999999978e+01 +4.6028925611901252e+00 +0.0000000000000000e+00 +1.0599879301590148e+01 -8.2654853348598199e-03 +0.0000000000000000e+00 +9.9996584029264690e-01
1.0699999999999978e+01 +4.6020621139763760e+00 +0.0000000000000000e+00 +1.0699875853292486e+01 -8.3434589265226032e-03 +0.0000000000000000e+00 +9.9996519274079820e-01
1.0799999999999978e+01 +4.6012238694075442e+00 +0.0000000000000000e+00 +1.0799872339935646e+01 -8.4214324364782819e-03 +0.0000000000000000e+00 +9.9996453910912164e-01
1.0899999999999977e+01 +4.6003778274918092e+00 +0.0000000000000000e+00 +1.0899868760911650e+01 -8.4994058645674973e-03 +0.0000000000000000e+00 +9.9996387939762588e-01
1.0999999999999977e+01 +4.5995239882373626e+00 +0.0000000000000000e+00 +1.0999865115612511e+01 -8.5773792107125772e-03 +0.0000000000000000e+00 +9.9996321360631857e-01
1.1099999999999977e+01 +4.5986623516523988e+00 +0.0000000000000000e+00 +1.1099861403430253e+01 -8.6553524749175322e-03 +0.0000000000000000e+00 +9.9996254173520682e-01
1.1199999999999976e+01 +4.5977929177451076e+00 +0.0000000000000000e+00 +1.1199857623756893e+01 -8.7333256572680543e-03 +0.0000000000000000e+00 +9.9996186378429675e-01
1.1299999999999976e+01 +4.5969156865236682e+00 +0.0000000000000000e+00 +1.1299853775984452e+01 -8.8112987579315096e-03 +0.0000000000000000e+00 +9.9996117975359367e-01
1.1399999999999975e+01 +4.5960306579962360e+00 +0.0000000000000000e+00 +1.1399849859504952e+01 -8.8892717771569350e-03 +0.0000000000000000e+00 +9.9996048964310191e-01
1.1499999999999975e+01 +4.5951378321709404e+00 +0.0000000000000000e+00 +1.1499845873710413e+01 -8.9672447152750363e-03 +0.0000000000000000e+00 +9.9995979345282515e-01
1.1599999999999975e+01 +4.5942372090558710e+00 +0.0000000000000000e+00 +1.1599841817992857e+01 -9.0452175726981800e-03 +0.0000000000000000e+00 +9.9995909118276582e-01
1.1699999999999974e+01 +4.5933287886590737e+00 +0.0000000000000000e+00 +1.1699837691744307e+01 -9.1231903499203876e-03 +0.0000000000000000e+00 +9.9995838283292549e-01
1.1799999999999974e+01 +4.5924125709885413e+00 +0.0000000000000000e+00 +1.1799833494356783e+01 -9.2011630475173287e-03 +0.0000000000000000e+00 +9.9995766840330469e-01
