# multipoles
# s[mm] polynom_b[n=0][T/m^n] polynom_b[n=1][T/m^n] polynom_b[n=2][T/m^n] polynom_b[n=3][T/m^n] polynom_b[n=4][T/m^n] polynom_b[n=5][T/m^n] polynom_b[n=6][T/m^n] 
+0.0000000000000000e+00 +4.7678163165664200e-01 -1.2264936412924410e-03 -2.4012558707163509e-01 +3.7076357197866692e+01 +1.2770658202607524e+03 -1.6065453479196326e+05 -6.2133510560601931e+06 
+1.0000000000000001e-01 +4.7678162513184064e-01 -1.2350673781130334e-03 -2.3818341106121393e-01 +3.7514636950500481e+01 +1.2454467067770158e+03 -1.6330318563130181e+05 -6.1114785375829404e+06 
+2.0000000000000001e-01 +4.7678162268414448e-01 -1.2446959495490658e-03 -2.3655212406089041e-01 +3.7973467978423848e+01 +1.2189556412422269e+03 -1.6602063410504584e+05 -6.0337612934667366e+06 
+3.0000000000000004e-01 +4.7678162375288852e-01 -1.2552507599841946e-03 -2.3520325635475481e-01 +3.8449050597123289e+01 +1.1971278542183043e+03 -1.6878890146102288e+05 -5.9778921439527180e+06 
+4.0000000000000002e-01 +4.7678162777734490e-01 -1.2666032248488663e-03 -2.3410833403979261e-01 +3.8937585405437623e+01 +1.1794985346628177e+03 -1.7159001079193066e+05 -5.9415637908872198e+06 
+5.0000000000000000e-01 +4.7678163419679315e-01 -1.2786247723335017e-03 -2.3323888709423460e-01 +3.9435273353939749e+01 +1.1656029697320380e+03 -1.7440598736343134e+05 -5.9224694379147291e+06 
+5.9999999999999998e-01 +4.7678164245050331e-01 -1.2911868392734512e-03 -2.3256644758442049e-01 +3.9938315638169598e+01 +1.1549765063972013e+03 -1.7721885791505087e+05 -5.9183025930847451e+06 
+6.9999999999999996e-01 +4.7678165197774813e-01 -1.3041608695020979e-03 -2.3206255026052702e-01 +4.0442913672599786e+01 +1.1471545486027735e+03 -1.8001065045603586e+05 -5.9267570134300506e+06 
+7.9999999999999993e-01 +4.7678166221782275e-01 -1.3174183115953453e-03 -2.3169873508658670e-01 +4.0945269041309480e+01 +1.1416725989132151e+03 -1.8276339390493554e+05 -5.9455268799397498e+06 
+8.9999999999999991e-01 +4.7678167261005583e-01 -1.3308306208677735e-03 -2.3144654824883468e-01 +4.1441583571703674e+01 +1.1380662672931667e+03 -1.8545911844301232e+05 -5.9723068066760292e+06 
+9.9999999999999989e-01 +4.7678168259382708e-01 -1.3442692510996061e-03 -2.3127754377036416e-01 +4.1928059116068745e+01 +1.1358712909281967e+03 -1.8807985420170700e+05 -6.0047919020557916e+06 
+1.0999999999999999e+00 +4.7678169160855444e-01 -1.3576056590570557e-03 -2.3116328204301873e-01 +4.2400897696540930e+01 +1.1346234997658314e+03 -1.9060763201023772e+05 -6.0406775826937966e+06 
+1.2000000000000000e+00 +4.7678169909375323e-01 -1.3707112995656524e-03 -2.3107533657601703e-01 +4.2856301380954108e+01 +1.1338589325051307e+03 -1.9302448262444659e+05 -6.0776600849569887e+06 
+1.3000000000000000e+00 +4.7678170448900392e-01 -1.3834576242171574e-03 -2.3098528980538974e-01 +4.3290472264127182e+01 +1.1331137497404288e+03 -1.9531243654748975e+05 -6.1134360313997380e+06 
+1.4000000000000001e+00 +4.7678170723397095e-01 -1.3957160790303987e-03 -2.3086473478709002e-01 +4.3699612418183861e+01 +1.1319242530467384e+03 -1.9745352367976052e+05 -6.1457024804032035e+06 
+1.5000000000000002e+00 +4.7678170676845782e-01 -1.4073581051797031e-03 -2.3068528251717843e-01 +4.4079923925752105e+01 +1.1298270205219619e+03 -1.9942977342347009e+05 -6.1721575541618224e+06 
+1.6000000000000003e+00 +4.7678170253235508e-01 -1.4182551332107848e-03 -2.3041855417191007e-01 +4.4427608736756497e+01 +1.1263587434908845e+03 -2.0122321381296340e+05 -6.1904996191184456e+06 
+1.7000000000000004e+00 +4.7678169396570674e-01 -1.4282785856033098e-03 -2.3003618987300928e-01 +4.4738868758448028e+01 +1.1210563876799954e+03 -2.0281587195487510e+05 -6.1984280293534352e+06 
+1.8000000000000005e+00 +4.7678168050868602e-01 -1.4372998727718109e-03 -2.2950984494439119e-01 +4.5009905751564908e+01 +1.1134571120490843e+03 -2.0418977334741000e+05 -6.1936427118883999e+06 
+1.9000000000000006e+00 +4.7678166160163499e-01 -1.4451903901057908e-03 -2.2881119457161983e-01 +4.5236921271999243e+01 +1.1030983455968355e+03 -2.0532694150450599e+05 -6.1738444934956944e+06 
+2.0000000000000004e+00 +4.7678163668503326e-01 -1.4518215340426710e-03 -2.2791192696183360e-01 +4.5416117042789878e+01 +1.0895176147464203e+03 -2.0620939337669121e+05 -6.1367347245393367e+06 
+2.1000000000000005e+00 +4.7678160533232544e-01 -1.4570940242976231e-03 -2.2678931617057585e-01 +4.5544761389491782e+01 +1.0723117878378007e+03 -2.0682401206484955e+05 -6.0803158281124840e+06 
+2.2000000000000006e+00 +4.7678156763703078e-01 -1.4610230710787884e-03 -2.2544727677643880e-01 +4.5624572197809506e+01 +1.0515063770037891e+03 -2.0718090944792281e+05 -6.0047460487606665e+06 
+2.3000000000000007e+00 +4.7678152381967098e-01 -1.4636554335007166e-03 -2.2389748889666433e-01 +4.5658583879158940e+01 +1.0272871937844129e+03 -2.0729763070256574e+05 -5.9110170647191359e+06 
+2.4000000000000008e+00 +4.7678147410081695e-01 -1.4650379166171149e-03 -2.2215164022016651e-01 +4.5649833088316960e+01 +9.9984033246280114e+02 -2.0719173420901693e+05 -5.8001221919389749e+06 
+2.5000000000000009e+00 +4.7678141870105595e-01 -1.4652173323627916e-03 -2.2022141518059760e-01 +4.5601356692084003e+01 +9.6935180834006553e+02 -2.0688077961352054e+05 -5.6730543585122693e+06 
+2.6000000000000010e+00 +4.7678135784097397e-01 -1.4642404890626278e-03 -2.1811849323132476e-01 +4.5516191448517198e+01 +9.3600753283310041e+02 -2.0638232601600391e+05 -5.5308060153552173e+06 
+2.7000000000000011e+00 +4.7678129174114869e-01 -1.4621542009508413e-03 -2.1585454661827508e-01 +4.5397374271652083e+01 +8.9999327135185831e+02 -2.0571393353503221e+05 -5.3743689479559241e+06 
+2.8000000000000012e+00 +4.7678122062216732e-01 -1.4590052842363616e-03 -2.1344124256751154e-01 +4.5247942113490197e+01 +8.6149469045881847e+02 -2.0489316270806262e+05 -5.2047345230295444e+06 
+2.9000000000000012e+00 +4.7678114470458027e-01 -1.4548405578084852e-03 -2.1089023693759087e-01 +4.5070931962530004e+01 +8.2069724045499277e+02 -2.0393757448949351e+05 -5.0228931500990801e+06 
+3.0000000000000013e+00 +4.7678106420891975e-01 -1.4497068457159272e-03 -2.0821317610518103e-01 +4.4869380916311435e+01 +7.7778619659427329e+02 -2.0286473075887954e+05 -4.8298345015010759e+06 
+3.1000000000000014e+00 +4.7678097935569064e-01 -1.4436509765335956e-03 -2.0542169513378530e-01 +4.4646326145003563e+01 +7.3294662555800448e+02 -2.0169219413541741e+05 -4.6265473651488638e+06 
+3.2000000000000015e+00 +4.7678089036535576e-01 -1.4367197834578317e-03 -2.0252741576599620e-01 +4.4404804884043216e+01 +6.8636335367575737e+02 -2.0043752798800927e+05 -4.4140195206076847e+06 
+3.3000000000000016e+00 +4.7678079745831908e-01 -1.4289601044424646e-03 -1.9954194358777447e-01 +4.4147854433319779e+01 +6.3822091520401432e+02 -1.9911829649709276e+05 -4.1932375096508637e+06 
+3.4000000000000017e+00 +4.7678070085494156e-01 -1.4204187860106462e-03 -1.9647686976103293e-01 +4.3878512244088093e+01 +5.8870359081466950e+02 -1.9775206516911482e+05 -3.9651868417419540e+06 
+3.5000000000000018e+00 +4.7678060077551870e-01 -1.4111426783926042e-03 -1.9334376741241910e-01 +4.3599815783047234e+01 +5.3799534039425998e+02 -1.9635640014700839e+05 -3.7308516902362504e+06 
+3.6000000000000019e+00 +4.7678049744027406e-01 -1.4011786414135120e-03 -1.9015419075166967e-01 +4.3314802677033747e+01 +4.8627979308119939e+02 -1.9494886905095979e+05 -3.4912148708690736e+06 
+3.7000000000000020e+00 +4.7678039106935688e-01 -1.3905735411407049e-03 -1.8691967376057109e-01 +4.3026510619039719e+01 +4.3374022253493587e+02 -1.9354704052614773e+05 -3.2472577360302825e+06 
+3.8000000000000020e+00 +4.7678028188282068e-01 -1.3793742526356878e-03 -1.8365172770535784e-01 +4.2737977423344454e+01 +3.8055950814843652e+02 -1.9216848456983408e+05 -2.9999600215411284e+06 
+3.9000000000000021e+00 +4.7678017010064189e-01 -1.3676276594134385e-03 -1.8036184258156515e-01 +4.2452241010320577e+01 +3.2692016295370519e+02 -1.9083077252779470e+05 -2.7502999902674691e+06 
+4.0000000000000018e+00 +4.7678005594272510e-01 -1.3553805324747138e-03 -1.7706149992219317e-01 +4.2172332563339211e+01 +2.7300526773057533e+02 -1.8955146935801356e+05 -2.4992575374460090e+06 
+4.1000000000000014e+00 +4.7677993960175497e-01 -1.3426799985213314e-03 -1.7375994881136686e-01 +4.1900606523867957e+01 +2.1902088234207534e+02 -1.8834455061579472e+05 -2.2479726296158405e+06 
+4.2000000000000011e+00 +4.7677982120660145e-01 -1.3295898225137563e-03 -1.7046505685312799e-01 +4.1637619272791355e+01 +1.6517959032069419e+02 -1.8721194112526919e+05 -1.9975542471950254e+06 
+4.3000000000000007e+00 +4.7677970088233085e-01 -1.3161766824763032e-03 -1.6718648397786184e-01 +4.1383268718691767e+01 +1.1167804671540291e+02 -1.8615093306432507e+05 -1.7489084289221726e+06 
+4.4000000000000004e+00 +4.7677957875393800e-01 -1.3025070938997229e-03 -1.6393387724951619e-01 +4.1137442381940879e+01 +5.8711803353901040e+01 -1.8515875882954861e+05 -1.5029343917485767e+06 
+4.5000000000000000e+00 +4.7677945494634155e-01 -1.2886475891308068e-03 -1.6071688455594083e-01 +4.0900028457799351e+01 +6.4764554644631867e+00 -1.8423265521987886e+05 -1.2605315876590561e+06 
+4.5999999999999996e+00 +4.7677932958439295e-01 -1.2746647162671259e-03 -1.5754515655185106e-01 +4.0670915787703287e+01 -4.4832320260477481e+01 -1.8336986327918718e+05 -1.0225998822393626e+06 
+4.6999999999999993e+00 +4.7677920279282970e-01 -1.2606250407246392e-03 -1.5442834149314638e-01 +4.0449993917757546e+01 -9.5018861595026863e+01 -1.8256762866092939e+05 -7.9003910215375491e+05 
+4.7999999999999989e+00 +4.7677907469633124e-01 -1.2465951452446922e-03 -1.5137609352022027e-01 +4.0237153109108945e+01 -1.4388735935909153e+02 -1.8182320171319565e+05 -5.6374980533424742e+05 
+4.8999999999999986e+00 +4.7677894541946564e-01 -1.2326416315808651e-03 -1.4839806626456814e-01 +4.0032284391883827e+01 -1.9124198074004195e+02 -1.8113383779711596e+05 -3.4463268745067780e+05 
+4.9999999999999982e+00 +4.7677881508671777e-01 -1.2188311198560859e-03 -1.4550391743008173e-01 +3.9835279557283847e+01 -2.3688677742694207e+02 -1.8049679726489988e+05 -1.3358902536625799e+05 
+5.0999999999999979e+00 +4.7677868382246114e-01 -1.2052302520754131e-03 -1.4270330619797841e-01 +3.9646031270504061e+01 -2.8062573235519193e+02 -1.7990934613721669e+05 +6.8479541142615286e+04 
+5.1999999999999975e+00 +4.7677855175097178e-01 -1.1919056887272550e-03 -1.4000589565308685e-01 +3.9464432981072207e+01 -3.2226271380071108e+02 -1.7936875560467571e+05 +2.6067079830552658e+05 
+5.2999999999999972e+00 +4.7677841899640377e-01 -1.1789241144988260e-03 -1.3742135064151914e-01 +3.9290379095645513e+01 -3.6160151201149165e+02 -1.7887230303834748e+05 +4.4208212449124042e+05 
+5.3999999999999968e+00 +4.7677828568282143e-01 -1.1663522345045176e-03 -1.3495934228608852e-01 +3.9123764879511832e+01 -3.9844575411846620e+02 -1.7841727144596464e+05 +6.1181009438524221e+05 
+5.4999999999999964e+00 +4.7677815193414491e-01 -1.1542567777360628e-03 -1.3262954264862764e-01 +3.8964486566175225e+01 -4.3259899862517523e+02 -1.7800095012660621e+05 +7.6895091154578212e+05 
+5.5999999999999961e+00 +4.7677801787418284e-01 -1.1427044963815552e-03 -1.3044162920763991e-01 +3.8812441350383018e+01 -4.6386465282943448e+02 -1.7762063465848009e+05 +9.1260002975876990e+05 
+5.6999999999999957e+00 +4.7677788362662765e-01 -1.1317621683626618e-03 -1.2840528482300051e-01 +3.8667527460297364e+01 -4.9204597084182342e+02 -1.7727362730552940e+05 +1.0418521399085432e+06 
+5.7999999999999954e+00 +4.7677774931501837e-01 -1.1214965960161748e-03 -1.2653019462142834e-01 +3.8529644142958595e+01 -5.1694610768871803e+02 -1.7695723699457551e+05 +1.1558014177454477e+06 
+5.8999999999999950e+00 +4.7677761506277355e-01 -1.1119746087751910e-03 -1.2482605046279505e-01 +3.8398691739791310e+01 -5.3836803539499874e+02 -1.7666877973927927e+05 +1.2535411335657376e+06 
+5.9999999999999947e+00 +4.7677748099297962e-01 -1.1032633917456361e-03 -1.2330249376552806e-01 +3.8274590827659608e+01 -5.5611755160571317e+02 -1.7640560381216655e+05 +1.3341744259149113e+06 
+6.0999999999999943e+00 +4.7677734722144616e-01 -1.0954203359686283e-03 -1.2197006970965353e-01 +3.8157682315881210e+01 -5.7005062735046033e+02 -1.7616719303233264e+05 +1.3970995119604594e+06 
+6.1999999999999940e+00 +4.7677721382700439e-01 -1.0884330069333276e-03 -1.2083282811975563e-01 +3.8048077668093974e+01 -5.8018358590867967e+02 -1.7595360111273656e+05 +1.4424934516149706e+06 
+6.2999999999999936e+00 +4.7677708087376491e-01 -1.0822633526044172e-03 -1.1988918981030640e-01 +3.7945747285856115e+01 -5.8660714889500309e+02 -1.7576468125545449e+05 +1.4708249396443465e+06 
+6.3999999999999932e+00 +4.7677694842570395e-01 -1.0768732919857755e-03 -1.1913752800051526e-01 +3.7850668350703003e+01 -5.8941187004624385e+02 -1.7560030087736691e+05 +1.4825620977281258e+06 
+6.4999999999999929e+00 +4.7677681654686666e-01 -1.0722247545213340e-03 -1.1857621977063336e-01 +3.7762817917912869e+01 -5.8868819259978068e+02 -1.7546032579895342e+05 +1.4781723967154154e+06 
+6.5999999999999925e+00 +4.7677668530136319e-01 -1.0682796791358497e-03 -1.1820364461309976e-01 +3.7682172861047583e+01 -5.8452647905599417e+02 -1.7534461986237008e+05 +1.4581227998507062e+06 
+6.6999999999999922e+00 +4.7677655475339481e-01 -1.0650000150512105e-03 -1.1801818781476957e-01 +3.7608709885945089e+01 -5.7701694435679747e+02 -1.7525304499539357e+05 +1.4228794405245713e+06 
+6.7999999999999918e+00 +4.7677642496721850e-01 -1.0623477225480248e-03 -1.1801823526859362e-01 +3.7542405524701174e+01 -5.6624975441756806e+02 -1.7518546111024244e+05 +1.3729080848004972e+06 
+6.8999999999999915e+00 +4.7677629600719318e-01 -1.0602847716195173e-03 -1.1820217935992776e-01 +3.7483236080939783e+01 -5.5231491252059880e+02 -1.7514172575546149e+05 +1.3086735894568178e+06 
+6.9999999999999911e+00 +4.7677616793774974e-01 -1.0587731435694975e-03 -1.1856841422935428e-01 +3.7431177652252245e+01 -5.3530235066755210e+02 -1.7512169419141434e+05 +1.2306403344925258e+06 
+7.0999999999999908e+00 +4.7677604082342750e-01 -1.0577748280899588e-03 -1.1911534077330485e-01 +3.7386206032742066e+01 -5.1530183053973292e+02 -1.7512521880509501e+05 +1.1392717442077079e+06 
+7.1999999999999904e+00 +4.7677591472884484e-01 -1.0572518270433463e-03 -1.1984136182343036e-01 +3.7348296793260445e+01 -4.9240303776050081e+02 -1.7515214949978350e+05 +1.0350307372524117e+06 
+7.2999999999999901e+00 +4.7677578971872936e-01 -1.0571661509790121e-03 -1.2074488634642210e-01 +3.7317425171435623e+01 -4.6669549745184747e+02 -1.7520233305334582e+05 +9.1837931427819154e+05 
+7.3999999999999897e+00 +4.7677566585791109e-01 -1.0574798213312372e-03 -1.2182432745982452e-01 +3.7293566105772655e+01 -4.3826861552169873e+02 -1.7527561323875861e+05 +7.8977876074821712e+05 
+7.4999999999999893e+00 +4.7677554321132087e-01 -1.0581548703187417e-03 -1.2307810237140621e-01 +3.7276694219135912e+01 -4.0721167592057458e+02 -1.7537183070542704e+05 +6.4968962217571319e+05 
+7.5999999999999890e+00 +4.7677542184401389e-01 -1.0591533402957954e-03 -1.2450463499453120e-01 +3.7266783779406552e+01 -3.7361378997617811e+02 -1.7549082270845067e+05 +4.9857146102271375e+05 
+7.6999999999999886e+00 +4.7677530182115091e-01 -1.0604372812638007e-03 -1.2610235292083569e-01 +3.7263808603205398e+01 -3.3756395472753411e+02 -1.7563242249644524e+05 +3.3688313179598993e+05 
+7.7999999999999883e+00 +4.7677518320802342e-01 -1.0619687565290733e-03 -1.2786969061629891e-01 +3.7267742206651029e+01 -2.9915099099186261e+02 -1.7579646015883467e+05 +1.6508248592675145e+05 
+7.8999999999999879e+00 +4.7677506607003461e-01 -1.0637098387757582e-03 -1.2980508620501524e-01 +3.7278557668233930e+01 -2.5846360334595727e+02 -1.7598276177867950e+05 -1.6373351486777618e+04 
+7.9999999999999876e+00 +4.7677495047304258e-01 -1.0656223461880572e-03 -1.3190703988211461e-01 +3.7296207954811301e+01 -2.1558679491790051e+02 -1.7619118849333815e+05 -2.0703685031352073e+05 
+8.0999999999999872e+00 +4.7677483644940399e-01 -1.0676800244316074e-03 -1.3416907662963831e-01 +3.7320468904415556e+01 -1.7064008123300783e+02 -1.7642093066581778e+05 -4.0635349568848696e+05 
+8.1999999999999869e+00 +4.7677472386720754e-01 -1.0698964360788517e-03 -1.3656971796418516e-01 +3.7351555114536680e+01 -1.2394536824254801e+02 -1.7667302085340285e+05 -6.1298951498265914e+05 
+8.2999999999999865e+00 +4.7677461253784009e-01 -1.0722925799649436e-03 -1.3908338976204337e-01 +3.7389822967052780e+01 -7.5890738502093583e+01 -1.7694948813813415e+05 -8.2535132930151140e+05 
+8.3999999999999861e+00 +4.7677450227205054e-01 -1.0748892610508271e-03 -1.4168442561939446e-01 +3.7435625597001980e+01 -2.6866057317959033e+01 -1.7725239313377641e+05 -1.0418408269343742e+06 
+8.4999999999999858e+00 +4.7677439288050344e-01 -1.0777071799246574e-03 -1.4434715116295424e-01 +3.7489313192026074e+01 +2.2738670929658689e+01 -1.7758377984842716e+05 -1.2608592667124509e+06 
+8.5999999999999854e+00 +4.7677428417375617e-01 -1.0807669269816270e-03 -1.4704588224628828e-01 +3.7551232831115172e+01 +7.2533275567365223e+01 -1.7794567477774457e+05 -1.4808071680322986e+06 
+8.6999999999999851e+00 +4.7677417596224719e-01 -1.0840889802241171e-03 -1.4975492220867043e-01 +3.7621728428534176e+01 +1.2212735797619479e+02 -1.7834008659954870e+05 -1.7000839931862087e+06 
+8.7999999999999847e+00 +4.7677406805632866e-01 -1.0876937011342980e-03 -1.5244856701915463e-01 +3.7701140616232934e+01 +1.7113039517401094e+02 -1.7876900550440099e+05 -1.9170886521646620e+06 
+8.8999999999999844e+00 +4.7677396026621222e-01 -1.0916013328659540e-03 -1.5510109825238161e-01 +3.7789806697321872e+01 +2.1915160507280237e+02 -1.7923440294251550e+05 -2.1302188620179859e+06 
+8.9999999999999840e+00 +4.7677385240202008e-01 -1.0958319956112163e-03 -1.5768678930611885e-01 +3.7888060520345235e+01 +2.6580006148170736e+02 -1.7973823092367381e+05 -2.3378716816330240e+06 
+9.0999999999999837e+00 +4.7677374427373037e-01 -1.1004056830970124e-03 -1.6017989930242482e-01 +3.7996232380998428e+01 +3.1068458273199798e+02 -1.8028242145912661e+05 -2.5384429961199383e+06 
+9.1999999999999833e+00 +4.7677363569123105e-01 -1.1053422600084274e-03 -1.6255467902819393e-01 +3.8114648954510692e+01 +3.5341383913468883e+02 -1.8086888619022054e+05 -2.7303280111485613e+06 
+9.2999999999999829e+00 +4.7677352646426818e-01 -1.1106614587838349e-03 -1.6478536512784811e-01 +3.8243633205203480e+01 +3.9359624522952083e+02 -1.8149951587598119e+05 -2.9119207485600379e+06 
+9.3999999999999826e+00 +4.7677341640246579e-01 -1.1163828756589813e-03 -1.6684618250481328e-01 +3.8383504281981565e+01 +4.3084000459360294e+02 -1.8217617981685404e+05 -3.0816142564988518e+06 
+9.4999999999999822e+00 +4.7677330531532214e-01 -1.1225259659016138e-03 -1.6871134392746950e-01 +3.8534577383050717e+01 +4.6475310172336253e+02 -1.8290072508316688e+05 -3.2378005680882651e+06 
+9.5999999999999819e+00 +4.7677319301220333e-01 -1.1291100433934759e-03 -1.7035504916054464e-01 +3.8697163747916555e+01 +4.9494328540011708e+02 -1.8367497648064359e+05 -3.3788706228107112e+06 
+9.6999999999999815e+00 +4.7677307930235197e-01 -1.1361542757123138e-03 -1.7175148632789791e-01 +3.8871570525110066e+01 +5.2101809362696076e+02 -1.8450073581460316e+05 -3.5032143804752380e+06 
+9.7999999999999812e+00 +4.7677296399486230e-01 -1.1436776798544083e-03 -1.7287482863726866e-01 +3.9058100648975199e+01 +5.4258479105626861e+02 -1.8537978118452171e+05 -3.6092205237952550e+06 
+9.8999999999999808e+00 +4.7677284689869937e-01 -1.1516991216340305e-03 -1.7369923719222863e-01 +3.9257052831799967e+01 +5.5925042428481947e+02 -1.8631386695978549e+05 -3.6952767254378134e+06 
+9.9999999999999805e+00 +4.7677272782394425e-01 -1.1602357525349757e-03 -1.7419930105057352e-01 +3.9468688120100033e+01 +5.7063015571735173e+02 -1.8730447526799439e+05 -3.7598152819283316e+06 
+1.0099999999999980e+01 +4.7677260660970550e-01 -1.1692571077164464e-03 -1.7436061940088143e-01 +3.9692383703373999e+01 +5.7653565127146032e+02 -1.8834880278852012e+05 -3.8021602904268997e+06 
