# trajectory
# s[mm] rx[mm] ry[mm] rz[mm] px[rad] py[rad] pz[rad]
0.0000000000000000e+00 +4.6467000000000001e+00 +0.0000000000000000e+00 +0.0000000000000000e+00 +0.0000000000000000e+00 +0.0000000000000000e+00 +1.0000000000000000e+00
1.0000000000000001e-01 +4.6466956860676039e+00 +0.0000000000000000e+00 +9.9999999875933263e-02 -8.6278647366997658e-05 +0.0000000000000000e+00 +9.9999999627799752e-01
2.0000000000000001e-01 +4.6466827442706480e+00 +0.0000000000000000e+00 +1.9999999900746604e-01 -1.7255729109198628e-04 +0.0000000000000000e+00 +9.9999998511199051e-01
3.0000000000000004e-01 +4.6466611746095241e+00 +0.0000000000000000e+00 +2.9999999665019794e-01 -2.5883593063819884e-04 +0.0000000000000000e+00 +9.9999996650197986e-01
4.0000000000000002e-01 +4.6466309770846781e+00 +0.0000000000000000e+00 +3.9999999205972864e-01 -3.4511456544649582e-04 +0.0000000000000000e+00 +9.9999994044796647e-01
5.0000000000000000e-01 +4.6465921516966118e+00 +0.0000000000000000e+00 +4.9999998449165789e-01 -4.3139319493534588e-04 +0.0000000000000000e+00 +9.9999990694995122e-01
5.9999999999999998e-01 +4.6465446984458882e+00 +0.0000000000000000e+00 +5.9999997320158549e-01 -5.1767181850080829e-04 +0.0000000000000000e+00 +9.9999986600793511e-01
6.9999999999999996e-01 +4.6464886173331301e+00 +0.0000000000000000e+00 +6.9999995744511156e-01 -6.0395043551651729e-04 +0.0000000000000000e+00 +9.9999981762191903e-01
7.9999999999999993e-01 +4.6464239083590249e+00 +0.0000000000000000e+00 +7.9999993647783607e-01 -6.9022904533366910e-04 +0.0000000000000000e+00 +9.9999976179190408e-01
8.9999999999999991e-01 +4.6463505715243256e+00 +0.0000000000000000e+00 +8.9999990955535913e-01 -7.7650764728101032e-04 +0.0000000000000000e+00 +9.9999969851789139e-01
9.9999999999999989e-01 +4.6462686068298540e+00 +0.0000000000000000e+00 +9.9999987593328110e-01 -8.6278624066482860e-04 +0.0000000000000000e+00 +9.9999962779988216e-01
1.0999999999999999e+00 +4.6461780142765017e+00 +0.0000000000000000e+00 +1.0999998348672024e+00 -9.4906482476894553e-04 +0.0000000000000000e+00 +9.9999954963787774e-01
1.2000000000000000e+00 +4.6460787938652341e+00 +0.0000000000000000e+00 +1.1999997856127236e+00 -1.0353433988547114e-03 +0.0000000000000000e+00 +9.9999946403187956e-01
1.3000000000000000e+00 +4.6459709455970906e+00 +0.0000000000000000e+00 +1.2999997274254453e+00 -1.1216219621610019e-03 +0.0000000000000000e+00 +9.9999937098188918e-01
1.4000000000000001e+00 +4.6458544694731874e+00 +0.0000000000000000e+00 +1.3999996595609685e+00 -1.2079005139042172e-03 +0.0000000000000000e+00 +9.9999927048790815e-01
1.5000000000000002e+00 +4.6457293654947218e+00 +0.0000000000000000e+00 +1.4999995812748941e+00 -1.2941790532782829e-03 +0.0000000000000000e+00 +9.9999916254993837e-01
1.6000000000000003e+00 +4.6455956336629720e+00 +0.0000000000000000e+00 +1.5999994918228233e+00 -1.3804575794546527e-03 +0.0000000000000000e+00 +9.9999904716798171e-01
1.7000000000000004e+00 +4.6454532739792995e+00 +0.0000000000000000e+00 +1.6999993904603576e+00 -1.4667360915823137e-03 +0.0000000000000000e+00 +9.9999892434204030e-01
1.8000000000000005e+00 +4.6453022864451530e+00 +0.0000000000000000e+00 +1.7999992764430985e+00 -1.5530145887877934e-03 +0.0000000000000000e+00 +9.9999879407211634e-01
1.9000000000000006e+00 +4.6451426710620689e+00 +0.0000000000000000e+00 +1.8999991490266481e+00 -1.6392930701751688e-03 +0.0000000000000000e+00 +9.9999865635821228e-01
2.0000000000000004e+00 +4.6449744278316754e+00 +0.0000000000000000e+00 +1.9999990074666083e+00 -1.7255715348260777e-03 +0.0000000000000000e+00 +9.9999851120033079e-01
2.1000000000000005e+00 +4.6447975567556927e+00 +0.0000000000000000e+00 +2.0999988510185816e+00 -1.8118499818000323e-03 +0.0000000000000000e+00 +9.9999835859847452e-01
2.2000000000000006e+00 +4.6446120578359364e+00 +0.0000000000000000e+00 +2.1999986789381709e+00 -1.8981284101377389e-03 +0.0000000000000000e+00 +9.9999819855264660e-01
2.3000000000000007e+00 +4.6444179310743188e+00 +0.0000000000000000e+00 +2.2999984904809789e+00 -1.9844068188644092e-03 +0.0000000000000000e+00 +9.9999803106285012e-01
2.4000000000000008e+00 +4.6442151764728505e+00 +0.0000000000000000e+00 +2.3999982849026087e+00 -2.0706852069900627e-03 +0.0000000000000000e+00 +9.9999785612908854e-01
2.5000000000000009e+00 +4.6440037940336412e+00 +0.0000000000000000e+00 +2.4999980614586645e+00 -2.1569635735095264e-03 +0.0000000000000000e+00 +9.9999767375136539e-01
2.6000000000000010e+00 +4.6437837837589031e+00 +0.0000000000000000e+00 +2.5999978194047499e+00 -2.2432419174024361e-03 +0.0000000000000000e+00 +9.9999748392968457e-01
2.7000000000000011e+00 +4.6435551456509501e+00 +0.0000000000000000e+00 +2.6999975579964697e+00 -2.3295202376332380e-03 +0.0000000000000000e+00 +9.9999728666404997e-01
2.8000000000000012e+00 +4.6433178797122006e+00 +0.0000000000000000e+00 +2.7999972764894285e+00 -2.4157985331511888e-03 +0.0000000000000000e+00 +9.9999708195446591e-01
2.9000000000000012e+00 +4.6430719859451788e+00 +0.0000000000000000e+00 +2.8999969741392317e+00 -2.5020768028903564e-03 +0.0000000000000000e+00 +9.9999686980093694e-01
3.0000000000000013e+00 +4.6428174643525173e+00 +0.0000000000000000e+00 +2.9999966502014850e+00 -2.5883550457696230e-03 +0.0000000000000000e+00 +9.9999665020346773e-01
3.1000000000000014e+00 +4.6425543149369570e+00 +0.0000000000000000e+00 +3.0999963039317944e+00 -2.6746332606926841e-03 +0.0000000000000000e+00 +9.9999642316206327e-01
3.2000000000000015e+00 +4.6422825377013481e+00 +0.0000000000000000e+00 +3.1999959345857665e+00 -2.7609114465480511e-03 +0.0000000000000000e+00 +9.9999618867672879e-01
3.3000000000000016e+00 +4.6420021326486536e+00 +0.0000000000000000e+00 +3.2999955414190092e+00 -2.8471896022090526e-03 +0.0000000000000000e+00 +9.9999594674746983e-01
3.4000000000000017e+00 +4.6417130997819509e+00 +0.0000000000000000e+00 +3.3999951236871300e+00 -2.9334677265338356e-03 +0.0000000000000000e+00 +9.9999569737429217e-01
3.5000000000000018e+00 +4.6414154391044304e+00 +0.0000000000000000e+00 +3.4999946806457372e+00 -3.0197458183653680e-03 +0.0000000000000000e+00 +9.9999544055720180e-01
3.6000000000000019e+00 +4.6411091506193998e+00 +0.0000000000000000e+00 +3.5999942115504400e+00 -3.1060238765314384e-03 +0.0000000000000000e+00 +9.9999517629620494e-01
3.7000000000000020e+00 +4.6407942343302855e+00 +0.0000000000000000e+00 +3.6999937156568481e+00 -3.1923018998446600e-03 +0.0000000000000000e+00 +9.9999490459130835e-01
3.8000000000000020e+00 +4.6404706902406323e+00 +0.0000000000000000e+00 +3.7999931922205716e+00 -3.2785798871024711e-03 +0.0000000000000000e+00 +9.9999462544251883e-01
3.9000000000000021e+00 +4.6401385183541075e+00 +0.0000000000000000e+00 +3.8999926404972221e+00 -3.3648578370871376e-03 +0.0000000000000000e+00 +9.9999433884984357e-01
4.0000000000000018e+00 +4.6397977186744992e+00 +0.0000000000000000e+00 +3.9999920597424112e+00 -3.4511357485657551e-03 +0.0000000000000000e+00 +9.9999404481329013e-01
4.1000000000000014e+00 +4.6394482912057198e+00 +0.0000000000000000e+00 +4.0999914492117515e+00 -3.5374136202933472e-03 +0.0000000000000000e+00 +9.9999374333286628e-01
4.2000000000000011e+00 +4.6390902359518060e+00 +0.0000000000000000e+00 +4.1999908081608561e+00 -3.6236914510469403e-03 +0.0000000000000000e+00 +9.9999343440858002e-01
4.3000000000000007e+00 +4.6387235529169146e+00 +0.0000000000000000e+00 +4.2999901358453396e+00 -3.7099692396596481e-03 +0.0000000000000000e+00 +9.9999311804043944e-01
4.4000000000000004e+00 +4.6383482421053159e+00 +0.0000000000000000e+00 +4.3999894315208161e+00 -3.7962469850237792e-03 +0.0000000000000000e+00 +9.9999279422845255e-01
4.5000000000000000e+00 +4.6379643035213869e+00 +0.0000000000000000e+00 +4.4999886944429024e+00 -3.8825246860908500e-03 +0.0000000000000000e+00 +9.9999246297262734e-01
4.5999999999999996e+00 +4.6375717371696075e+00 +0.0000000000000000e+00 +4.5999879238672143e+00 -3.9688023418715922e-03 +0.0000000000000000e+00 +9.9999212427297179e-01
4.6999999999999993e+00 +4.6371705430545536e+00 +0.0000000000000000e+00 +4.6999871190493696e+00 -4.0550799514359687e-03 +0.0000000000000000e+00 +9.9999177812949391e-01
4.7999999999999989e+00 +4.6367607211808899e+00 +0.0000000000000000e+00 +4.7999862792449859e+00 -4.1413575139131811e-03 +0.0000000000000000e+00 +9.9999142454220147e-01
4.8999999999999986e+00 +4.6363422715533673e+00 +0.0000000000000000e+00 +4.8999854037096826e+00 -4.2276350284916860e-03 +0.0000000000000000e+00 +9.9999106351110223e-01
4.9999999999999982e+00 +4.6359151941768131e+00 +0.0000000000000000e+00 +4.9999844916990792e+00 -4.3139124944192057e-03 +0.0000000000000000e+00 +9.9999069503620375e-01
5.0999999999999979e+00 +4.6354794890561282e+00 +0.0000000000000000e+00 +5.0999835424687969e+00 -4.4001899110027425e-03 +0.0000000000000000e+00 +9.9999031911751346e-01
5.1999999999999975e+00 +4.6350351561962784e+00 +0.0000000000000000e+00 +5.1999825552744561e+00 -4.4864672776085933e-03 +0.0000000000000000e+00 +9.9998993575503858e-01
5.2999999999999972e+00 +4.6345821956022917e+00 +0.0000000000000000e+00 +5.2999815293716788e+00 -4.5727445936623616e-03 +0.0000000000000000e+00 +9.9998954494878611e-01
5.3999999999999968e+00 +4.6341206072792485e+00 +0.0000000000000000e+00 +5.3999804640160880e+00 -4.6590218586489759e-03 +0.0000000000000000e+00 +9.9998914669876282e-01
5.4999999999999964e+00 +4.6336503912322788e+00 +0.0000000000000000e+00 +5.4999793584633059e+00 -4.7452990721127018e-03 +0.0000000000000000e+00 +9.9998874100497515e-01
5.5999999999999961e+00 +4.6331715474665565e+00 +0.0000000000000000e+00 +5.5999782119689572e+00 -4.8315762336571602e-03 +0.0000000000000000e+00 +9.9998832786742942e-01
5.6999999999999957e+00 +4.6326840759872896e+00 +0.0000000000000000e+00 +5.6999770237886667e+00 -4.9178533429453412e-03 +0.0000000000000000e+00 +9.9998790728613141e-01
5.7999999999999954e+00 +4.6321879767997185e+00 +0.0000000000000000e+00 +5.7999757931780591e+00 -5.0041303996996231e-03 +0.0000000000000000e+00 +9.9998747926108655e-01
5.8999999999999950e+00 +4.6316832499091083e+00 +0.0000000000000000e+00 +5.8999745193927593e+00 -5.0904074037017881e-03 +0.0000000000000000e+00 +9.9998704379230008e-01
5.9999999999999947e+00 +4.6311698953207419e+00 +0.0000000000000000e+00 +5.9999732016883947e+00 -5.1766843547930404e-03 +0.0000000000000000e+00 +9.9998660087977675e-01
6.0999999999999943e+00 +4.6306479130399163e+00 +0.0000000000000000e+00 +6.0999718393205908e+00 -5.2629612528701519e-03 +0.0000000000000000e+00 +9.9998615052352091e-01
6.1999999999999940e+00 +4.6301173030719376e+00 +0.0000000000000000e+00 +6.1999704315449744e+00 -5.3492380978428598e-03 +0.0000000000000000e+00 +9.9998569272353677e-01
6.2999999999999936e+00 +4.6295780654221215e+00 +0.0000000000000000e+00 +6.2999689776171737e+00 -5.4355148895912008e-03 +0.0000000000000000e+00 +9.9998522747982843e-01
6.3999999999999932e+00 +4.6290302000957979e+00 +0.0000000000000000e+00 +6.3999674767928161e+00 -5.5217916279615888e-03 +0.0000000000000000e+00 +9.9998475479240012e-01
6.4999999999999929e+00 +4.6284737070983146e+00 +0.0000000000000000e+00 +6.4999659283275300e+00 -5.6080683127667655e-03 +0.0000000000000000e+00 +9.9998427466125617e-01
6.5999999999999925e+00 +4.6279085864350380e+00 +0.0000000000000000e+00 +6.5999643314769436e+00 -5.6943449437857514e-03 +0.0000000000000000e+00 +9.9998378708640090e-01
6.6999999999999922e+00 +4.6273348381113593e+00 +0.0000000000000000e+00 +6.6999626854966863e+00 -5.7806215207637929e-03 +0.0000000000000000e+00 +9.9998329206783898e-01
6.7999999999999918e+00 +4.6267524621326963e+00 +0.0000000000000000e+00 +6.7999609896423880e+00 -5.8668980434123099e-03 +0.0000000000000000e+00 +9.9998278960557485e-01
6.8999999999999915e+00 +4.6261614585044981e+00 +0.0000000000000000e+00 +6.8999592431696781e+00 -5.9531745114088383e-03 +0.0000000000000000e+00 +9.9998227969961340e-01
6.9999999999999911e+00 +4.6255618272322474e+00 +0.0000000000000000e+00 +6.9999574453341875e+00 -6.0394509243969739e-03 +0.0000000000000000e+00 +9.9998176234995950e-01
7.0999999999999908e+00 +4.6249535683214651e+00 +0.0000000000000000e+00 +7.0999555953915472e+00 -6.1257272819863111e-03 +0.0000000000000000e+00 +9.9998123755661827e-01
7.1999999999999904e+00 +4.6243366817777112e+00 +0.0000000000000000e+00 +7.1999536925973882e+00 -6.2120035837523822e-03 +0.0000000000000000e+00 +9.9998070531959493e-01
7.2999999999999901e+00 +4.6237111676065910e+00 +0.0000000000000000e+00 +7.2999517362073432e+00 -6.2982798292365912e-03 +0.0000000000000000e+00 +9.9998016563889491e-01
7.3999999999999897e+00 +4.6230770258137568e+00 +0.0000000000000000e+00 +7.3999497254770450e+00 -6.3845560179461511e-03 +0.0000000000000000e+00 +9.9997961851452388e-01
7.4999999999999893e+00 +4.6224342564049117e+00 +0.0000000000000000e+00 +7.4999476596621264e+00 -6.4708321493540137e-03 +0.0000000000000000e+00 +9.9997906394648783e-01
7.5999999999999890e+00 +4.6217828593858146e+00 +0.0000000000000000e+00 +7.5999455380182210e+00 -6.5571082228988026e-03 +0.0000000000000000e+00 +9.9997850193479276e-01
7.6999999999999886e+00 +4.6211228347622804e+00 +0.0000000000000000e+00 +7.6999433598009634e+00 -6.6433842379847374e-03 +0.0000000000000000e+00 +9.9997793247944511e-01
7.7999999999999883e+00 +4.6204541825401870e+00 +0.0000000000000000e+00 +7.7999411242659891e+00 -6.7296601939815645e-03 +0.0000000000000000e+00 +9.9997735558045153e-01
7.8999999999999879e+00 +4.6197769027254756e+00 +0.0000000000000000e+00 +7.8999388306689333e+00 -6.8159360902244788e-03 +0.0000000000000000e+00 +9.9997677123781892e-01
7.9999999999999876e+00 +4.6190909953241572e+00 +0.0000000000000000e+00 +7.9999364782654325e+00 -6.9022119260140468e-03 +0.0000000000000000e+00 +9.9997617945155459e-01
8.0999999999999872e+00 +4.6183964603423124e+00 +0.0000000000000000e+00 +8.0999340663111230e+00 -6.9884877006176592e-03 +0.0000000000000000e+00 +9.9997558022166599e-01
8.1999999999999869e+00 +4.6176932977860981e+00 +0.0000000000000000e+00 +8.1999315940616437e+00 -7.0747634132863578e-03 +0.0000000000000000e+00 +9.9997497354816101e-01
8.2999999999999865e+00 +4.6169815076617446e+00 +0.0000000000000000e+00 +8.2999290607726337e+00 -7.1610390632718046e-03 +0.0000000000000000e+00 +9.9997435943104740e-01
8.3999999999999861e+00 +4.6162610899755583e+00 +0.0000000000000000e+00 +8.3999264656997319e+00 -7.2473146498279652e-03 +0.0000000000000000e+00 +9.9997373787033306e-01
8.4999999999999858e+00 +4.6155320447339188e+00 +0.0000000000000000e+00 +8.4999238080985791e+00 -7.3335901722112523e-03 +0.0000000000000000e+00 +9.9997310886602608e-01
8.5999999999999854e+00 +4.6147943719432805e+00 +0.0000000000000000e+00 +8.5999210872248177e+00 -7.4198656296806812e-03 +0.0000000000000000e+00 +9.9997247241813447e-01
8.6999999999999851e+00 +4.6140480716101715e+00 +0.0000000000000000e+00 +8.6999183023340869e+00 -7.5061410214980265e-03 +0.0000000000000000e+00 +9.9997182852666633e-01
8.7999999999999847e+00 +4.6132931437411937e+00 +0.0000000000000000e+00 +8.7999154526820309e+00 -7.5924163469279857e-03 +0.0000000000000000e+00 +9.9997117719162987e-01
8.8999999999999844e+00 +4.6125295883430226e+00 +0.0000000000000000e+00 +8.8999125375242940e+00 -7.6786916052383435e-03 +0.0000000000000000e+00 +9.9997051841303342e-01
8.9999999999999840e+00 +4.6117574054224075e+00 +0.0000000000000000e+00 +8.9999095561165188e+00 -7.7649667957001454e-03 +0.0000000000000000e+00 +9.9996985219088519e-01
9.0999999999999837e+00 +4.6109765949861687e+00 +0.0000000000000000e+00 +9.0999065077143531e+00 -7.8512419175878721e-03 +0.0000000000000000e+00 +9.9996917852519362e-01
9.1999999999999833e+00 +4.6101871570412003e+00 +0.0000000000000000e+00 +9.1999033915734412e+00 -7.9375169701796228e-03 +0.0000000000000000e+00 +9.9996849741596716e-01
9.2999999999999829e+00 +4.6093890915944673e+00 +0.0000000000000000e+00 +9.2999002069494292e+00 -8.0237919527572990e-03 +0.0000000000000000e+00 +9.9996780886321435e-01
9.3999999999999826e+00 +4.6085823986530068e+00 +0.0000000000000000e+00 +9.3998969530979668e+00 -8.1100668646067950e-03 +0.0000000000000000e+00 +9.9996711286694362e-01
9.4999999999999822e+00 +4.6077670782239268e+00 +0.0000000000000000e+00 +9.4998936292747018e+00 -8.1963417050181907e-03 +0.0000000000000000e+00 +9.9996640942716353e-01
9.5999999999999819e+00 +4.6069431303144075e+00 +0.0000000000000000e+00 +9.5998902347352839e+00 -8.2826164732859534e-03 +0.0000000000000000e+00 +9.9996569854388284e-01
9.6999999999999815e+00 +4.6061105549316981e+00 +0.0000000000000000e+00 +9.6998867687353627e+00 -8.3688911687091420e-03 +0.0000000000000000e+00 +9.9996498021711011e-01
9.7999999999999812e+00 +4.6052693520831172e+00 +0.0000000000000000e+00 +9.7998832305305896e+00 -8.4551657905916153e-03 +0.0000000000000000e+00 +9.9996425444685411e-01
9.8999999999999808e+00 +4.6044195217760544e+00 +0.0000000000000000e+00 +9.8998796193766179e+00 -8.5414403382422423e-03 +0.0000000000000000e+00 +9.9996352123312349e-01
9.9999999999999805e+00 +4.6035610640179661e+00 +0.0000000000000000e+00 +9.9998759345290988e+00 -8.6277148109751237e-03 +0.0000000000000000e+00 +9.9996278057592702e-01
1.0099999999999980e+01 +4.6026939788163794e+00 +0.0000000000000000e+00 +1.0099872175243688e+01 -8.7139892081102167e-03 +0.0000000000000000e+00 +9.9996203247527360e-01
1.0199999999999980e+01 +4.6018182661788867e+00 +0.0000000000000000e+00 +1.0199868340776039e+01 -8.8002635289780150e-03 +0.0000000000000000e+00 +9.9996127693117187e-01
1.0299999999999979e+01 +4.6009339261131474e+00 +0.0000000000000000e+00 +1.0299864430381808e+01 -8.8865377729240233e-03 +0.0000000000000000e+00 +9.9996051394363050e-01
1.0399999999999979e+01 +4.6000409586268871e+00 +0.0000000000000000e+00 +1.0399860443316651e+01 -8.9728119393090219e-03 +0.0000000000000000e+00 +9.9995974351265815e-01
1.0499999999999979e+01 +4.5991393637278923e+00 +0.0000000000000000e+00 +1.0499856378836226e+01 -9.0590860275089110e-03 +0.0000000000000000e+00 +9.9995896563826336e-01
1.0599999999999978e+01 +4.5982291414240120e+00 +0.0000000000000000e+00 +1.0599852236196190e+01 -9.1453600369145478e-03 +0.0000000000000000e+00 +9.9995818032045447e-01
1.0699999999999978e+01 +4.5973102917231561e+00 +0.0000000000000000e+00 +1.0699848014652202e+01 -9.2316339669315812e-03 +0.0000000000000000e+00 +9.9995738755923991e-01
1.0799999999999978e+01 +4.5963828146332917e+00 +0.0000000000000000e+00 +1.0799843713459923e+01 -9.3179078169802788e-03 +0.0000000000000000e+00 +9.9995658735462789e-01
1.0899999999999977e+01 +4.5954467101624443e+00 +0.0000000000000000e+00 +1.0899839331875015e+01 -9.4041815864953516e-03 +0.0000000000000000e+00 +9.9995577970662664e-01
1.0999999999999977e+01 +4.5945019783186956e+00 +0.0000000000000000e+00 +1.0999834869153137e+01 -9.4904552749257767e-03 +0.0000000000000000e+00 +9.9995496461524402e-01
1.1099999999999977e+01 +4.5935486191101802e+00 +0.0000000000000000e+00 +1.1099830324549952e+01 -9.5767288817346103e-03 +0.0000000000000000e+00 +9.9995414208048816e-01
1.1199999999999976e+01 +4.5925866325450873e+00 +0.0000000000000000e+00 +1.1199825697321122e+01 -9.6630024063987970e-03 +0.0000000000000000e+00 +9.9995331210236671e-01
1.1299999999999976e+01 +4.5916160186316564e+00 +0.0000000000000000e+00 +1.1299820986722313e+01 -9.7492758484089819e-03 +0.0000000000000000e+00 +9.9995247468088744e-01
1.1399999999999975e+01 +4.5906367773781778e+00 +0.0000000000000000e+00 +1.1399816192009188e+01 -9.8355492072693049e-03 +0.0000000000000000e+00 +9.9995162981605790e-01
1.1499999999999975e+01 +4.5896489087929906e+00 +0.0000000000000000e+00 +1.1499811312437414e+01 -9.9218224824972057e-03 +0.0000000000000000e+00 +9.9995077750788564e-01
1.1599999999999975e+01 +4.5886524128844819e+00 +0.0000000000000000e+00 +1.1599806347262655e+01 -1.0008095673623211e-02 +0.0000000000000000e+00 +9.9994991775637787e-01
1.1699999999999974e+01 +4.5876472896610849e+00 +0.0000000000000000e+00 +1.1699801295740579e+01 -1.0094368780190727e-02 +0.0000000000000000e+00 +9.9994905056154171e-01
1.1799999999999974e+01 +4.5866335391312774e+00 +0.0000000000000000e+00 +1.1799796157126853e+01 -1.0180641801755824e-02 +0.0000000000000000e+00 +9.9994817592338425e-01
