# multipoles
# s[mm] polynom_b[n=0][T/m^n] polynom_b[n=1][T/m^n] polynom_b[n=2][T/m^n] polynom_b[n=3][T/m^n] polynom_b[n=4][T/m^n] polynom_b[n=5][T/m^n] polynom_b[n=6][T/m^n] 
+0.0000000000000000e+00 -8.6220383888655217e-02 +4.2015522970885607e-04 -7.3048162045915507e-02 -2.4936080148107043e+00 +1.5432834973666261e+03 +2.2713840591307893e+04 -6.2556444505310310e+06 
-1.0000000000000001e-01 -8.6220397555717768e-02 +4.1384641854480406e-04 -7.3213068566418474e-02 -2.3712215410290280e+00 +1.5429841590439710e+03 +2.2100797140002676e+04 -6.2481271716063088e+06 
-2.0000000000000001e-01 -8.6220410221124935e-02 +4.0699192051875903e-04 -7.3251535846677554e-02 -2.2358635791749046e+00 +1.5407015584144690e+03 +2.1424361088181140e+04 -6.2329172730491813e+06 
-3.0000000000000004e-01 -8.6220421939590564e-02 +3.9963945510584664e-04 -7.3173371263555151e-02 -2.0886804087125386e+00 +1.5365976030717288e+03 +2.0690329590166599e+04 -6.2106872845130237e+06 
-4.0000000000000002e-01 -8.6220432765797952e-02 +3.9183673154787139e-04 -7.2988385314071938e-02 -1.9308180007229838e+00 +1.5308342508754142e+03 +1.9904498088636676e+04 -6.1821099507707004e+06 
-5.0000000000000000e-01 -8.6220442754407545e-02 +3.8363145053936168e-04 -7.2706390658453940e-02 -1.7634220676989683e+00 +1.5235734925653326e+03 +1.9072660600596046e+04 -6.1478581517280899e+06 
-5.9999999999999998e-01 -8.6220451960059341e-02 +3.7507130573565445e-04 -7.2337202015125404e-02 -1.5876381126495784e+00 +1.5149773513689736e+03 +1.8200610011623408e+04 -6.1086049046388315e+06 
-6.9999999999999996e-01 -8.6220460437381657e-02 +3.6620398467884568e-04 -7.1890635193282995e-02 -1.4046114570115782e+00 +1.5052078662184144e+03 +1.7294138236327704e+04 -6.0650232888980648e+06 
-7.9999999999999993e-01 -8.6220468240993456e-02 +3.5707717047540774e-04 -7.1376506806340140e-02 -1.2154872942173904e+00 +1.4944270868145284e+03 +1.6359036537136973e+04 -6.0177864240716537e+06 
-8.9999999999999991e-01 -8.6220475425514406e-02 +3.4773854320171147e-04 -7.0804633312287757e-02 -1.0214107317464325e+00 +1.4827970579240007e+03 +1.5401095766878578e+04 -5.9675674020850481e+06 
-9.9999999999999989e-01 -8.6220482045569577e-02 +3.3823578125431275e-04 -7.0184830384615704e-02 -8.2352683506391866e-01 +1.4704798076506672e+03 +1.4426106631422939e+04 -5.9150392324470691e+06 
-1.0999999999999999e+00 -8.6220488155794195e-02 +3.2861656252172581e-04 -6.9526912509565220e-02 -6.2298066283995390e-01 +1.4576373417375164e+03 +1.3439859892762339e+04 -5.8608748202795675e+06 
-1.2000000000000000e+00 -8.6220493810838947e-02 +3.1892856585491008e-04 -6.8840692467042872e-02 -4.2091731378655661e-01 +1.4444316351210107e+03 +1.2448146647169227e+04 -5.8057469301993474e+06 
-1.3000000000000000e+00 -8.6220499065378292e-02 +3.0921947261087015e-04 -6.8135980325172846e-02 -2.1848197466836303e-01 +1.4310246135441287e+03 +1.1456758607199372e+04 -5.7503281009475961e+06 
-1.4000000000000001e+00 -8.6220503974115265e-02 +2.9953696783825782e-04 -6.7422583048190973e-02 -1.6819956497975765e-02 +1.4175781482590035e+03 +1.0471488311797766e+04 -5.6952906262941752e+06 
-1.5000000000000002e+00 -8.6220508591784234e-02 +2.8992874156206399e-04 -6.6710304235325868e-02 +1.8292326414394361e-01 +1.4042540518707160e+03 +9.4981293721080110e+03 -5.6413065371045116e+06 
-1.6000000000000003e+00 -8.6220512973165700e-02 +2.8044249040248614e-04 -6.6008942349996783e-02 +3.7960199493101543e-01 +1.3912140460784690e+03 +8.5424767663759339e+03 -5.5890474526614649e+06 
-1.7000000000000004e+00 -8.6220517173080546e-02 +2.7112591854353154e-04 -6.5328291638497349e-02 +5.7207029806649212e-01 +1.3786197807995061e+03 +7.6103270117531129e+03 -5.5391846752745276e+06 
-1.8000000000000005e+00 -8.6220521246405876e-02 +2.6202674000023053e-04 -6.4678140180779886e-02 +7.5918191968441529e-01 +1.3666327979084836e+03 +6.7074785816111798e+03 -5.4923890208512451e+06 
-1.9000000000000006e+00 -8.6220525248072985e-02 +2.5319267875908936e-04 -6.4068270335009822e-02 +9.3979028428238465e-01 +1.3554145416569008e+03 +5.8397319379716937e+03 -5.4493308733243495e+06 
-2.0000000000000004e+00 -8.6220529233087970e-02 +2.4467147199768905e-04 -6.3508455745297829e-02 +1.1127485476621626e+00 +1.3451263205195214e+03 +5.0128894221884339e+03 -5.4106800179547397e+06 
-2.1000000000000005e+00 -8.6220533261934101e-02 +2.3650965711776326e-04 -6.3005175849301182e-02 +1.2770143912039391e+00 +1.3358785200229354e+03 +4.2320914995076382e+03 -5.3768964029646590e+06 
-2.2000000000000006e+00 -8.6220537408107922e-02 +2.2873785134470054e-04 -6.2552418800114667e-02 +1.4320289125541854e+00 +1.3275794401756273e+03 +3.4996628203393002e+03 -5.3475812971218871e+06 
-2.3000000000000007e+00 -8.6220541746961130e-02 +2.2137966658020134e-04 -6.2140966902561497e-02 +1.5773818148901875e+00 +1.3200839319319739e+03 +2.8171033719435809e+03 -5.3221017379593011e+06 
-2.4000000000000008e+00 -8.6220546353901875e-02 +2.1445870414873709e-04 -6.1761596343612862e-02 +1.7126630011062181e+00 +1.3132467515955254e+03 +2.1859116098802392e+03 -5.2998243155721063e+06 
-2.5000000000000009e+00 -8.6220551304385232e-02 +2.0799855862472800e-04 -6.1405079490390098e-02 +1.8374625181334134e+00 +1.3069226016172217e+03 +1.6075852885734180e+03 -5.2801154087563865e+06 
-2.6000000000000010e+00 -8.6220556673926141e-02 +2.0202281705640571e-04 -6.1062183438400683e-02 +1.9513705770226588e+00 +1.3009661048114033e+03 +1.0836213459546698e+03 -5.2623410671479767e+06 
-2.7000000000000011e+00 -8.6220562538089907e-02 +1.9655505752830740e-04 -6.0723671353368695e-02 +2.0539775904370310e+00 +1.2952318307904159e+03 +6.1551569175812631e+02 -5.2458671380379563e+06 
-2.8000000000000012e+00 -8.6220568972504671e-02 +1.9161884914210340e-04 -6.0380301052095200e-02 +2.1448741709147958e+00 +1.2895742705951413e+03 +2.0476321692714703e+02 -5.2300591500437446e+06 
-2.9000000000000012e+00 -8.6220576052853548e-02 +1.8723774989596318e-04 -6.0022826075814238e-02 +2.2236511896396758e+00 +1.2838478579823754e+03 -1.4714254409278007e+02 -5.2142824154794067e+06 
-3.0000000000000013e+00 -8.6220583854886221e-02 +1.8343530685584726e-04 -5.9641994514176629e-02 +2.2898997664077556e+00 +1.2779069492622991e+03 -4.3870934935130094e+02 -5.1979019401059868e+06 
-3.1000000000000014e+00 -8.6220592454414449e-02 +1.8023505440191624e-04 -5.9228549559928637e-02 +2.3432113203259233e+00 +1.2716058341240382e+03 -6.6844654733517541e+02 -5.1802824745762842e+06 
-3.2000000000000015e+00 -8.6220601927315996e-02 +1.7766051390648066e-04 -5.8773229305262222e-02 +2.3831775731741640e+00 +1.2647987340008854e+03 -8.3486508686095351e+02 -5.1607885117893349e+06 
-3.3000000000000016e+00 -8.6220612349539066e-02 +1.7573519210657620e-04 -5.8266766199711800e-02 +2.4093905954479906e+00 +1.2573397924290393e+03 -9.3647778666669376e+02 -5.1387842426934848e+06 
-3.4000000000000017e+00 -8.6220623797100160e-02 +1.7448258073081299e-04 -5.7699887574656217e-02 +2.4214428139525586e+00 +1.2490830868179896e+03 -9.7179937652046681e+02 -5.1136336157638738e+06 
-3.5000000000000018e+00 -8.6220636346087759e-02 +1.7392615535574064e-04 -5.7063315287032935e-02 +2.4189270401647733e+00 +1.2398826228356659e+03 -9.3934665476677787e+02 -5.0847003130956991e+06 
-3.6000000000000019e+00 -8.6220650072669158e-02 +1.7408937452792871e-04 -5.6347764983437333e-02 +2.4014364942739719e+00 +1.2295923217364441e+03 -8.3763862939520664e+02 -5.0513476932895361e+06 
-3.7000000000000020e+00 -8.6220665053084164e-02 +1.7499567824008508e-04 -5.5543947077981042e-02 +2.3685648458283670e+00 +1.2180660402803576e+03 -6.6519675015849259e+02 -5.0129388884681268e+06 
-3.8000000000000020e+00 -8.6220681363651963e-02 +1.7666848815929594e-04 -5.4642566008125108e-02 +2.3199062036117413e+00 +1.2051575578507734e+03 -4.2054484639232408e+02 -4.9688367460966511e+06 
-3.9000000000000021e+00 -8.6220699080773150e-02 +1.7913120547973632e-04 -5.3634320148060168e-02 +2.2550551749706638e+00 +1.1907205764119828e+03 -1.0220946851321368e+02 -4.9184038325111382e+06 
-4.0000000000000018e+00 -8.6220718280892270e-02 +1.8240717765704434e-04 -5.2509915216755153e-02 +2.1736067364693255e+00 +1.1746088998004486e+03 +2.9128425463895968e+02 -4.8610029255840713e+06 
-4.1000000000000014e+00 -8.6220738995365448e-02 +1.8649900903480772e-04 -5.1265660497170164e-02 +2.0755390372867502e+00 +1.1567652756913294e+03 +7.5978612972422877e+02 -4.7963634318965590e+06 
-4.2000000000000011e+00 -8.6220761052518899e-02 +1.9134220545276713e-04 -4.9915900733943183e-02 +1.9622577216584622e+00 +1.1374005884315329e+03 +1.2966892733002803e+03 -4.7253208438230278e+06 
-4.3000000000000007e+00 -8.6220784222234309e-02 +1.9685685620879270e-04 -4.8478921195398629e-02 +1.8355418505631622e+00 +1.1167770034156629e+03 +1.8937742596614296e+03 -4.6489246237442661e+06 
-4.4000000000000004e+00 -8.6220808274287172e-02 +2.0296307338269054e-04 -4.6973014369820369e-02 +1.6971698310188790e+00 +1.0951567427980783e+03 +2.5428335388444061e+03 -4.5682250237964178e+06 
-4.5000000000000000e+00 -8.6220832978339726e-02 +2.0958100286860268e-04 -4.5416483345018049e-02 +1.5489192432664003e+00 +1.0728021860217300e+03 +3.2356637696865037e+03 -4.4842729312669644e+06 
-4.5999999999999996e+00 -8.6220858103931167e-02 +2.1663082729175506e-04 -4.3827642823857260e-02 +1.3925667672673587e+00 +1.0499758865390870e+03 +3.9640662065857196e+03 -4.3981199415695909e+06 
-4.6999999999999993e+00 -8.6220883420471392e-02 +2.2403276717471735e-04 -4.2224819531771117e-02 +1.2298881598749347e+00 +1.0269405754712880e+03 +4.7198467957667626e+03 -4.3108183655800205e+06 
-4.7999999999999989e+00 -8.6220908697226345e-02 +2.3170708444992272e-04 -4.0626353808304240e-02 +1.0626581648580722e+00 +1.0039591890046534e+03 +5.4948166546941502e+03 -4.2234213523514168e+06 
-4.8999999999999986e+00 -8.6220933703316210e-02 +2.3957408361424399e-04 -3.9050599447533918e-02 +8.9265049081033920e-01 +9.8129486140353447e+02 +6.2807921631709814e+03 -4.1369828465340408e+06 
-4.9999999999999982e+00 -8.6220958207702897e-02 +2.4755411429204136e-04 -3.7515925115826361e-02 +7.2163774647131407e-01 +9.5921094958801064e+02 +7.0695953030303344e+03 -4.0525576989491140e+06 
-5.0999999999999979e+00 -8.6220981979180530e-02 +2.5556757348331439e-04 -3.6040715071564533e-02 +5.5139138856296754e-01 +9.3797104222312805e+02 +7.8530539175864078e+03 -3.9712016982905115e+06 
-5.1999999999999975e+00 -8.6221004786370750e-02 +2.6353490813719088e-04 -3.4643369584864865e-02 +3.8368165813866029e-01 +9.1783896558921720e+02 +8.6230020427245181e+03 -3.8939715942646228e+06 
-5.2999999999999972e+00 -8.6221026397709177e-02 +2.7137661663150507e-04 -3.3342306262666072e-02 +2.2027754764999286e-01 +8.9907880434423225e+02 +9.3712800629578505e+03 -3.8219251844437462e+06 
-5.3999999999999968e+00 -8.6221046581442223e-02 +2.7901325188067576e-04 -3.2155960190620059e-02 +6.2946723717018913e-02 +8.8195490179097681e+02 +1.0089735115803791e+04 -3.7561213104094374e+06 
-5.4999999999999964e+00 -8.6221065105610742e-02 +2.8636542265605437e-04 -3.1102785643982410e-02 -8.6544500651493897e-02 +8.6673188826282160e+02 +1.0770221216725007e+04 -3.6976199813379883e+06 
-5.5999999999999961e+00 -8.6221081738049959e-02 +2.9335379665015664e-04 -3.0201255819897868e-02 -2.2643124360033159e-01 +8.5367467320268804e+02 +1.1404599669731115e+04 -3.6474823302003546e+06 
-5.6999999999999957e+00 -8.6221096246376264e-02 +2.9989910236180806e-04 -2.9469864219961808e-02 -3.5495009757002843e-01 +8.4304846810932645e+02 +1.1984739277791416e+04 -3.6067707140592169e+06 
-5.7999999999999954e+00 -8.6221108397976490e-02 +3.0592213100160933e-04 -2.8927125626980504e-02 -4.7033917374901879e-01 +8.3511880131848625e+02 +1.2502516564058102e+04 -3.5765487747737188e+06 
-5.8999999999999950e+00 -8.6221117960005048e-02 +3.1134373946035385e-04 -2.8591576235575261e-02 -5.7083817573703410e-01 +8.3015151772834963e+02 +1.2949816156287106e+04 -3.5578814311844930e+06 
-5.9999999999999947e+00 -8.6221124699427928e-02 +3.1608494616607410e-04 -2.8481742514318866e-02 -6.5468815329261865e-01 +8.2841235956304331e+02 +1.3318514202643730e+04 -3.5518342786833160e+06 
-6.0999999999999943e+00 -8.6221128446466108e-02 +3.2009088439532307e-04 -2.8609573501320019e-02 -7.2060341467780087e-01 +8.3006242079339393e+02 +1.3602526296145958e+04 -3.5590455012582275e+06 
-6.1999999999999940e+00 -8.6221129339160180e-02 +3.2338859432113210e-04 -2.8966272139733979e-02 -7.6923133401566957e-01 +8.3497912374207010e+02 +1.3805204328473747e+04 -3.5790469637653632e+06 
-6.2999999999999936e+00 -8.6221127611398496e-02 +3.2602997087336551e-04 -2.9538570508602726e-02 -8.0192396197599125e-01 +8.4300270115977276e+02 +1.3933315494957238e+04 -3.6112620786187886e+06 
-6.3999999999999932e+00 -8.6221123497170982e-02 +3.2806706479814805e-04 -3.0313219766493885e-02 -8.2003997671583528e-01 +8.5397435489415261e+02 +1.3993636052698599e+04 -3.6551176357008694e+06 
-6.4999999999999929e+00 -8.6221117230584385e-02 +3.2955189653612358e-04 -3.1276958189958008e-02 -8.2493753294948657e-01 +8.6773507547531449e+02 +1.3992940186106978e+04 -3.7100395224110396e+06 
-6.5999999999999925e+00 -8.6221109045873184e-02 +3.3053645472877648e-04 -3.2416509891398403e-02 -8.1797423447830364e-01 +8.8412561950986844e+02 +1.3937999894756787e+04 -3.7754526215019096e+06 
-6.6999999999999922e+00 -8.6221099177399646e-02 +3.3107269372675607e-04 -3.3718584917938159e-02 -8.0050707858321224e-01 +9.0298651341031314e+02 +1.3835584719944773e+04 -3.8507808339145081e+06 
-6.7999999999999918e+00 -8.6221087859666853e-02 +3.3121253172532344e-04 -3.5169877717101589e-02 -7.7389241751195703e-01 +9.2415802632474367e+02 +1.3692461567674723e+04 -3.9354469566620528e+06 
-6.8999999999999915e+00 -8.6221075327319679e-02 +3.3100784975036835e-04 -3.6757067133036565e-02 -7.3948594549348468e-01 +9.4748017188901906e+02 +1.3515394680684039e+04 -4.0288726960847336e+06 
-6.9999999999999911e+00 -8.6221061815153585e-02 +3.3051048855464352e-04 -3.8466815473192126e-02 -6.9864262541917643e-01 +9.7279269282944642e+02 +1.3311145263883805e+04 -4.1304786014335025e+06 
-7.0999999999999908e+00 -8.6221047558117936e-02 +3.2977224762194832e-04 -4.0285768079285501e-02 -6.5271667483197526e-01 +9.9993505396971216e+02 +1.3086471445931120e+04 -4.2396840352529325e+06 
-7.1999999999999904e+00 -8.6221032791329005e-02 +3.2884488334246987e-04 -4.2200551914955232e-02 -6.0306153156544062e-01 +1.0287464181827465e+03 +1.2848128134649878e+04 -4.3559070672706347e+06 
-7.2999999999999901e+00 -8.6221017750067200e-02 +3.2778010632236997e-04 -4.4197775980760981e-02 -5.5102978880482523e-01 +1.0590656557682446e+03 +1.2602866680150775e+04 -4.4785645229724161e+06 
-7.3999999999999897e+00 -8.6221002669789520e-02 +3.2662958030253296e-04 -4.6264029841533175e-02 -4.9797318271845514e-01 +1.0907313182405369e+03 +1.2357434857948214e+04 -4.6070718644009912e+06 
-7.4999999999999893e+00 -8.6220987786134587e-02 +3.2544492007791260e-04 -4.8385883161284914e-02 -4.4524254694283300e-01 +1.1235816319380870e+03 +1.2118576648740189e+04 -4.7408431669914480e+06 
-7.5999999999999890e+00 -8.6220973334925399e-02 +3.2427768942333975e-04 -5.0549885407046691e-02 -3.9418776857883814e-01 +1.1574544938762672e+03 +1.1893032031830859e+04 -4.8792911039061639e+06 
-7.6999999999999886e+00 -8.6220959552180954e-02 +3.2317939923740490e-04 -5.2742564554414534e-02 -3.4615775123745884e-01 +1.1921874494849410e+03 +1.1687536819805244e+04 -5.0218268473831629e+06 
-7.7999999999999883e+00 -8.6220946674117060e-02 +3.2220150571686724e-04 -5.4950427016483117e-02 -3.0250037715194161e-01 +1.2276176925908871e+03 +1.1508822483280113e+04 -5.1678600723273410e+06 
-7.8999999999999879e+00 -8.6220934937160473e-02 +3.2139540865726854e-04 -5.7159956068619566e-02 -2.6456247565693264e-01 +1.2635820380447626e+03 +1.1363616020652509e+04 -5.3167988339209016e+06 
-7.9999999999999876e+00 -8.6220924578148284e-02 +3.2081248348301704e-04 -5.9357581430154661e-02 -2.3369046659129575e-01 +1.2999162061241746e+03 +1.1258614902300687e+04 -5.4680482535138428e+06 
-8.0999999999999872e+00 -8.6220915794152309e-02 +3.2049879579792100e-04 -6.1531656427709136e-02 -2.1113900242692490e-01 +1.3364765043600119e+03 +1.1199902126904602e+04 -5.6210951838366007e+06 
-8.1999999999999869e+00 -8.6220908577887834e-02 +3.2045742491727320e-04 -6.3677989863596601e-02 -1.9713520607381999e-01 +1.3731833025033370e+03 +1.1188356487186516e+04 -5.7755999967128877e+06 
-8.2999999999999865e+00 -8.6220902857593318e-02 +3.2066710729660423e-04 -6.5792875229555944e-02 -1.9124364425059520e-01 +1.4099270325632679e+03 +1.1221711928369865e+04 -5.9310389437539969e+06 
-8.3999999999999861e+00 -8.6220898561704729e-02 +3.2110603673362183e-04 -6.7872488727339475e-02 -1.9301115396570859e-01 +1.4465947885996700e+03 +1.1297661280659375e+04 -6.0868750768718766e+06 
-8.4999999999999858e+00 -8.6220895618593696e-02 +3.2175239635190536e-04 -6.9913011627154797e-02 -2.0198386239349056e-01 +1.4830737433210668e+03 +1.1413892668352655e+04 -6.2425717702460010e+06 
-8.5999999999999854e+00 -8.6220893956567859e-02 +3.2258435843313972e-04 -7.1910630071297305e-02 -2.1770716808007121e-01 +1.5192511438294500e+03 +1.1568089379182609e+04 -6.3975926989017008e+06 
-8.6999999999999851e+00 -8.6220893503866955e-02 +3.2358008410012906e-04 -7.3861535524816974e-02 -2.3972571678524712e-01 +1.5550143193547262e+03 +1.1757929699845683e+04 -6.5514018724953989e+06 
-8.7999999999999847e+00 -8.6220894188663702e-02 +3.2471772334736088e-04 -7.5761924600133743e-02 -2.6758338826089439e-01 +1.5902506775996310e+03 +1.1981086816271050e+04 -6.7034636169767454e+06 
-8.8999999999999844e+00 -8.6220895939052827e-02 +3.2597541477242988e-04 -7.7608000308251601e-02 -3.0082327281034721e-01 +1.6248477276323251e+03 +1.2235228652063473e+04 -6.8532426803545719e+06 
-8.9999999999999840e+00 -8.6220898683059460e-02 +3.2733128526928225e-04 -7.9395970942340452e-02 -3.3898764769852080e-01 +1.6586930581657391e+03 +1.2518017706837711e+04 -7.0002041282044593e+06 
-9.0999999999999837e+00 -8.6220902348628156e-02 +3.2876344999775345e-04 -8.1122051394833652e-02 -3.8161796310952195e-01 +1.6916743620726288e+03 +1.2827110956482549e+04 -7.1438134579924932e+06 
-9.1999999999999833e+00 -8.6220906863623673e-02 +3.3025001202059641e-04 -8.2782462945961324e-02 -4.2825481452335634e-01 +1.7236794315501891e+03 +1.3160159661257878e+04 -7.2835365738247512e+06 
-9.2999999999999829e+00 -8.6220912155827265e-02 +3.3176906227026543e-04 -8.4373433670146519e-02 -4.7843792921103040e-01 +1.7545961652879141e+03 +1.3514809270176385e+04 -7.4188398184072021e+06 
-9.3999999999999826e+00 -8.6220918152938433e-02 +3.3329867945441563e-04 -8.5891198119807846e-02 -5.3170614735813604e-01 +1.7843125619956600e+03 +1.3888699283718559e+04 -7.5491899411545582e+06 
-9.4999999999999822e+00 -8.6220924782564351e-02 +3.3481692965798312e-04 -8.7331998596143046e-02 -5.8759739678755063e-01 +1.8127167437488993e+03 +1.4279463085426103e+04 -7.6740542059335029e+06 
-9.5999999999999819e+00 -8.6220931972224218e-02 +3.3630186612575240e-04 -8.8692084490298556e-02 -6.4564867068545639e-01 +1.8396969428666105e+03 +1.4684727786447102e+04 -7.7929003271876490e+06 
-9.6999999999999815e+00 -8.6220939649343700e-02 +3.3773152930569023e-04 -8.9967712930293639e-02 -7.0539601609720748e-01 +1.8651415137060192e+03 +1.5102114139535357e+04 -7.9051965241215779e+06 
-9.7999999999999812e+00 -8.6220947741251483e-02 +3.3908394679968206e-04 -9.1155149130872817e-02 -7.6637451578537064e-01 +1.8889389386560949e+03 +1.5529236404539031e+04 -8.0104115468939058e+06 
-9.8999999999999808e+00 -8.6220956175180358e-02 +3.4033713261712498e-04 -9.2250666141478158e-02 -8.2811825346509405e-01 +1.9109778225867967e+03 +1.5963702127490005e+04 -8.1080146481491523e+06 
-9.9999999999999805e+00 -8.6220964879004505e-02 +3.4146895793288464e-04 -9.3250463136625147e-02 -8.9014760930057846e-01 +1.9311466511815267e+03 +1.6403050444624660e+04 -8.1974757419316880e+06 
-1.0099999999999980e+01 -8.6220973803241535e-02 +3.4245428473053121e-04 -9.4149326702357400e-02 -9.5178287231440828e-01 +1.9493266580723387e+03 +1.6843587795118707e+04 -8.2782709774373546e+06 
