# field on trajectory
# s[mm] rx[mm] ry[mm] rz[mm] bx[T] by[T] bz[T]
0.0000000000000000e+00 +4.6467000000000001e+00 +0.0000000000000000e+00 +0.0000000000000000e+00 +1.8854145700276933e-02 -3.4697391544127143e-01 +2.4212810297426228e-03
-1.0000000000000001e-01 +4.6466956830515933e+00 +0.0000000000000000e+00 -9.9999999875759707e-02 +1.8854035122371809e-02 -3.4697390977351555e-01 +2.4213004108926094e-03
-2.0000000000000001e-01 +4.6466827322065205e+00 +0.0000000000000000e+00 -1.9999999900607768e-01 +1.8853922133508158e-02 -3.4697389899478909e-01 +2.4213171427669819e-03
-3.0000000000000004e-01 +4.6466611474651458e+00 +0.0000000000000000e+00 -2.9999999664551225e-01 +1.8853807575587002e-02 -3.4697388372300925e-01 +2.4213313357890945e-03
-4.0000000000000002e-01 +4.6466309288280083e+00 +0.0000000000000000e+00 -3.9999999204862191e-01 +1.8853692290630400e-02 -3.4697386457601725e-01 +2.4213431003674429e-03
-5.0000000000000000e-01 +4.6465920762958088e+00 +0.0000000000000000e+00 -4.9999998446996530e-01 +1.8853577120778130e-02 -3.4697384217160415e-01 +2.4213525468948982e-03
-5.9999999999999998e-01 +4.6465445898693929e+00 +0.0000000000000000e+00 -5.9999997316410114e-01 +1.8853462908284505e-02 -3.4697381712753617e-01 +2.4213597857479551e-03
-6.9999999999999996e-01 +4.6464884695497366e+00 +0.0000000000000000e+00 -6.9999995738558840e-01 +1.8853350495515068e-02 -3.4697379006158008e-01 +2.4213649272859642e-03
-7.9999999999999993e-01 +4.6464237153379297e+00 +0.0000000000000000e+00 -7.9999993638898648e-01 +1.8853240724943335e-02 -3.4697376159152893e-01 +2.4213680818503730e-03
-8.9999999999999991e-01 +4.6463503272351634e+00 +0.0000000000000000e+00 -8.9999990942885466e-01 +1.8853134439147583e-02 -3.4697373233522683e-01 +2.4213693597639765e-03
-9.9999999999999989e-01 +4.6462683052427103e+00 +0.0000000000000000e+00 -9.9999987575975269e-01 +1.8853032480807535e-02 -3.4697370291059476e-01 +2.4213688713301531e-03
-1.0999999999999999e+00 +4.6461776493619134e+00 +0.0000000000000000e+00 -1.0999998346362405e+00 +1.8852935692701127e-02 -3.4697367393565587e-01 +2.4213667268321143e-03
-1.2000000000000000e+00 +4.6460783595941679e+00 +0.0000000000000000e+00 -1.1999997853128783e+00 +1.8852844917701242e-02 -3.4697364602856068e-01 +2.4213630365321442e-03
-1.3000000000000000e+00 +4.6459704359409075e+00 +0.0000000000000000e+00 -1.2999997270442267e+00 +1.8852760998772436e-02 -3.4697361980761310e-01 +2.4213579106708541e-03
-1.4000000000000001e+00 +4.6458538784035870e+00 +0.0000000000000000e+00 -1.3999996590848460e+00 +1.8852684778967635e-02 -3.4697359589129484e-01 +2.4213514594664158e-03
-1.5000000000000002e+00 +4.6457286869836700e+00 +0.0000000000000000e+00 -1.4999995806892972e+00 +1.8852617101424902e-02 -3.4697357489829145e-01 +2.4213437931138193e-03
-1.6000000000000003e+00 +4.6455948616826106e+00 +0.0000000000000000e+00 -1.5999994911121411e+00 +1.8852558809364105e-02 -3.4697355744751757e-01 +2.4213350217841116e-03
-1.7000000000000004e+00 +4.6454524025018396e+00 +0.0000000000000000e+00 -1.6999993896079386e+00 +1.8852510746083628e-02 -3.4697354415814213e-01 +2.4213252556236401e-03
-1.8000000000000005e+00 +4.6453013094427478e+00 +0.0000000000000000e+00 -1.7999992754312508e+00 +1.8852473754957088e-02 -3.4697353564961336e-01 +2.4213146047533029e-03
-1.9000000000000006e+00 +4.6451415825066720e+00 +0.0000000000000000e+00 -1.8999991478366389e+00 +1.8852448679429996e-02 -3.4697353254168523e-01 +2.4213031792677886e-03
-2.0000000000000004e+00 +4.6449732216948787e+00 +0.0000000000000000e+00 -1.9999990060786637e+00 +1.8852436363016440e-02 -3.4697353545444126e-01 +2.4212910892348204e-03
-2.1000000000000005e+00 +4.6447962270085501e+00 +0.0000000000000000e+00 -2.0999988494118860e+00 +1.8852437327855295e-02 -3.4697354483241843e-01 +2.4212784565618949e-03
-2.2000000000000006e+00 +4.6446105984487724e+00 +0.0000000000000000e+00 -2.1999986770908664e+00 +1.8852450810285529e-02 -3.4697356041678573e-01 +2.4212654506167272e-03
-2.3000000000000007e+00 +4.6444163360165431e+00 +0.0000000000000000e+00 -2.2999984883701652e+00 +1.8852475725066022e-02 -3.4697358177286197e-01 +2.4212522526562406e-03
-2.4000000000000008e+00 +4.6442134397127788e+00 +0.0000000000000000e+00 -2.3999982825043427e+00 +1.8852510986795995e-02 -3.4697360846598535e-01 +2.4212390439676359e-03
-2.5000000000000009e+00 +4.6440019095383294e+00 +0.0000000000000000e+00 -2.4999980587479587e+00 +1.8852555509890151e-02 -3.4697364006149695e-01 +2.4212260058736443e-03
-2.6000000000000010e+00 +4.6437817454939863e+00 +0.0000000000000000e+00 -2.5999978163555726e+00 +1.8852608208553792e-02 -3.4697367612472574e-01 +2.4212133197377889e-03
-2.7000000000000011e+00 +4.6435529475804938e+00 +0.0000000000000000e+00 -2.6999975545817438e+00 +1.8852667996758030e-02 -3.4697371622097223e-01 +2.4212011669696265e-03
-2.8000000000000012e+00 +4.6433155157985615e+00 +0.0000000000000000e+00 -2.7999972726810309e+00 +1.8852733788214778e-02 -3.4697375991549206e-01 +2.4211897290299881e-03
-2.9000000000000012e+00 +4.6430694501488725e+00 +0.0000000000000000e+00 -2.8999969699079928e+00 +1.8852804496352023e-02 -3.4697380677348166e-01 +2.4211791874362248e-03
-3.0000000000000013e+00 +4.6428147506320956e+00 +0.0000000000000000e+00 -2.9999966455171876e+00 +1.8852879034288887e-02 -3.4697385636006040e-01 +2.4211697237674344e-03
-3.1000000000000014e+00 +4.6425514172488969e+00 +0.0000000000000000e+00 -3.0999962987631728e+00 +1.8852956314810789e-02 -3.4697390824025659e-01 +2.4211615196696860e-03
-3.2000000000000015e+00 +4.6422794499999496e+00 +0.0000000000000000e+00 -3.1999959289005062e+00 +1.8853035250344565e-02 -3.4697396197899050e-01 +2.4211547568612451e-03
-3.3000000000000016e+00 +4.6419988488859438e+00 +0.0000000000000000e+00 -3.2999955351837453e+00 +1.8853114752933619e-02 -3.4697401714105891e-01 +2.4211496171377797e-03
-3.4000000000000017e+00 +4.6417096139076000e+00 +0.0000000000000000e+00 -3.3999951168674469e+00 +1.8853193734213066e-02 -3.4697407329111951e-01 +2.4211462823775726e-03
-3.5000000000000018e+00 +4.6414117450656782e+00 +0.0000000000000000e+00 -3.4999946732061678e+00 +1.8853271105384845e-02 -3.4697412999367433e-01 +2.4211449345467135e-03
-3.6000000000000019e+00 +4.6411052423609886e+00 +0.0000000000000000e+00 -3.5999942034544645e+00 +1.8853345777192939e-02 -3.4697418681305581e-01 +2.4211457557042995e-03
-3.7000000000000020e+00 +4.6407901057944034e+00 +0.0000000000000000e+00 -3.6999937068668936e+00 +1.8853416659898405e-02 -3.4697424331340881e-01 +2.4211489280076067e-03
-3.8000000000000020e+00 +4.6404663353668667e+00 +0.0000000000000000e+00 -3.7999931826980111e+00 +1.8853482663254626e-02 -3.4697429905867616e-01 +2.4211546337172709e-03
-3.9000000000000021e+00 +4.6401339310794052e+00 +0.0000000000000000e+00 -3.8999926302023731e+00 +1.8853542696482407e-02 -3.4697435361258322e-01 +2.4211630552024520e-03
-4.0000000000000018e+00 +4.6397928929331407e+00 +0.0000000000000000e+00 -3.9999920486345357e+00 +1.8853595668245158e-02 -3.4697440653862122e-01 +2.4211743749459913e-03
-4.1000000000000014e+00 +4.6394432209292988e+00 +0.0000000000000000e+00 -4.0999914372490549e+00 +1.8853640678785144e-02 -3.4697445745810540e-01 +2.4211886977361947e-03
-4.2000000000000011e+00 +4.6390849150692199e+00 +0.0000000000000000e+00 -4.1999907953004874e+00 +1.8853677596839612e-02 -3.4697450622446646e-01 +2.4212058171130548e-03
-4.3000000000000007e+00 +4.6387179753543615e+00 +0.0000000000000000e+00 -4.2999901220433889e+00 +1.8853706483543266e-02 -3.4697455274905237e-01 +2.4212254487689690e-03
-4.4000000000000004e+00 +4.6383424017863017e+00 +0.0000000000000000e+00 -4.3999894167323159e+00 +1.8853727400266539e-02 -3.4697459694302746e-01 +2.4212473083856699e-03
-4.5000000000000000e+00 +4.6379581943667407e+00 +0.0000000000000000e+00 -4.4999886786218255e+00 +1.8853740408640452e-02 -3.4697463871736123e-01 +2.4212711116314211e-03
-4.5999999999999996e+00 +4.6375653530975027e+00 +0.0000000000000000e+00 -4.5999879069664740e+00 +1.8853745570581656e-02 -3.4697467798282011e-01 +2.4212965741582234e-03
-4.6999999999999993e+00 +4.6371638779805391e+00 +0.0000000000000000e+00 -4.6999871010208185e+00 +1.8853742948317417e-02 -3.4697471464995766e-01 +2.4213234115990356e-03
-4.7999999999999989e+00 +4.6367537690179308e+00 +0.0000000000000000e+00 -4.7999862600394163e+00 +1.8853732604410638e-02 -3.4697474862910488e-01 +2.4213513395649994e-03
-4.8999999999999986e+00 +4.6363350262118903e+00 +0.0000000000000000e+00 -4.8999853832768245e+00 +1.8853714601784928e-02 -3.4697477983036079e-01 +2.4213800736426778e-03
-4.9999999999999982e+00 +4.6359076495647624e+00 +0.0000000000000000e+00 -4.9999844699876013e+00 +1.8853689003749702e-02 -3.4697480816358323e-01 +2.4214093293913083e-03
-5.0999999999999979e+00 +4.6354716390790278e+00 +0.0000000000000000e+00 -5.0999835194263046e+00 +1.8853655874025269e-02 -3.4697483353837849e-01 +2.4214388223400638e-03
-5.1999999999999975e+00 +4.6350269947573057e+00 +0.0000000000000000e+00 -5.1999825308474934e+00 +1.8853615276768019e-02 -3.4697485586409277e-01 +2.4214682679853253e-03
-5.2999999999999972e+00 +4.6345737166023557e+00 +0.0000000000000000e+00 -5.2999815035057276e+00 +1.8853567276595592e-02 -3.4697487504980212e-01 +2.4214973817879766e-03
-5.3999999999999968e+00 +4.6341118046170786e+00 +0.0000000000000000e+00 -5.3999804366555662e+00 +1.8853511938612112e-02 -3.4697489100430290e-01 +2.4215258791707001e-03
-5.4999999999999964e+00 +4.6336412588045217e+00 +0.0000000000000000e+00 -5.4999793295515689e+00 +1.8853449328433421e-02 -3.4697490363610306e-01 +2.4215534755152920e-03
-5.5999999999999961e+00 +4.6331620791678789e+00 +0.0000000000000000e+00 -5.5999781814482974e+00 +1.8853379512212380e-02 -3.4697491285341114e-01 +2.4215798861599966e-03
-5.6999999999999957e+00 +4.6326742657104925e+00 +0.0000000000000000e+00 -5.6999769916003125e+00 +1.8853302556664217e-02 -3.4697491856412838e-01 +2.4216048263968446e-03
-5.7999999999999954e+00 +4.6321778184358564e+00 +0.0000000000000000e+00 -5.7999757592621766e+00 +1.8853218529091872e-02 -3.4697492067583835e-01 +2.4216280114690248e-03
-5.8999999999999950e+00 +4.6316727373476194e+00 +0.0000000000000000e+00 -5.8999744836884522e+00 +1.8853127497411394e-02 -3.4697491909579720e-01 +2.4216491565682442e-03
-5.9999999999999947e+00 +4.6311590224495864e+00 +0.0000000000000000e+00 -5.9999731641337037e+00 +1.8853029530177444e-02 -3.4697491373092515e-01 +2.4216679768321362e-03
-6.0999999999999943e+00 +4.6306366737457205e+00 +0.0000000000000000e+00 -6.0999717998524954e+00 +1.8852924861788762e-02 -3.4697490453887009e-01 +2.4216842627443566e-03
-6.1999999999999940e+00 +4.6301056912401437e+00 +0.0000000000000000e+00 -6.1999703900993923e+00 +1.8852814388416430e-02 -3.4697489168163642e-01 +2.4216981065862623e-03
-6.2999999999999936e+00 +4.6295660749371343e+00 +0.0000000000000000e+00 -6.2999689341289606e+00 +1.8852699171916319e-02 -3.4697487537272725e-01 +2.4217096761105323e-03
-6.3999999999999932e+00 +4.6290178248411191e+00 +0.0000000000000000e+00 -6.3999674311957673e+00 +1.8852580274345356e-02 -3.4697485582606918e-01 +2.4217191390153449e-03
-6.4999999999999929e+00 +4.6284609409566713e+00 +0.0000000000000000e+00 -6.4999658805543810e+00 +1.8852458757965367e-02 -3.4697483325603423e-01 +2.4217266629419669e-03
-6.5999999999999925e+00 +4.6278954232885035e+00 +0.0000000000000000e+00 -6.5999642814593704e+00 +1.8852335685246878e-02 -3.4697480787746104e-01 +2.4217324154723273e-03
-6.6999999999999922e+00 +4.6273212718414625e+00 +0.0000000000000000e+00 -6.6999626331653053e+00 +1.8852212118872832e-02 -3.4697477990567605e-01 +2.4217365641265877e-03
-6.7999999999999918e+00 +4.6267384866205239e+00 +0.0000000000000000e+00 -6.7999609349267560e+00 +1.8852089121742285e-02 -3.4697474955651381e-01 +2.4217392763607021e-03
-6.8999999999999915e+00 +4.6261470676307868e+00 +0.0000000000000000e+00 -6.8999591859982949e+00 +1.8851967756974019e-02 -3.4697471704633909e-01 +2.4217407195639704e-03
-6.9999999999999911e+00 +4.6255470148774682e+00 +0.0000000000000000e+00 -6.9999573856344943e+00 +1.8851849087910096e-02 -3.4697468259206721e-01 +2.4217410610565754e-03
-7.0999999999999908e+00 +4.6249383283658982e+00 +0.0000000000000000e+00 -7.0999555330899273e+00 +1.8851734178119365e-02 -3.4697464641118553e-01 +2.4217404680871245e-03
-7.1999999999999904e+00 +4.6243210081015143e+00 +0.0000000000000000e+00 -7.1999536276191689e+00 +1.8851624091400850e-02 -3.4697460872177432e-01 +2.4217391078301706e-03
-7.2999999999999901e+00 +4.6236950540898549e+00 +0.0000000000000000e+00 -7.2999516684767940e+00 +1.8851519891787152e-02 -3.4697456974252783e-01 +2.4217371473837243e-03
-7.3999999999999897e+00 +4.6230604663365558e+00 +0.0000000000000000e+00 -7.3999496549173784e+00 +1.8851422643547732e-02 -3.4697452969277504e-01 +2.4217347537667626e-03
-7.4999999999999893e+00 +4.6224172448473437e+00 +0.0000000000000000e+00 -7.4999475861954989e+00 +1.8851333411192116e-02 -3.4697448879250165e-01 +2.4217320939167214e-03
-7.5999999999999890e+00 +4.6217653896280311e+00 +0.0000000000000000e+00 -7.5999454615657340e+00 +1.8851253259473073e-02 -3.4697444726236948e-01 +2.4217293346869779e-03
-7.6999999999999886e+00 +4.6211049006845100e+00 +0.0000000000000000e+00 -7.6999432802826613e+00 +1.8851183253389660e-02 -3.4697440532373880e-01 +2.4217266428443289e-03
-7.7999999999999883e+00 +4.6204357780227463e+00 +0.0000000000000000e+00 -7.7999410416008601e+00 +1.8851124458190250e-02 -3.4697436319868907e-01 +2.4217241850664479e-03
-7.8999999999999879e+00 +4.6197580216487770e+00 +0.0000000000000000e+00 -7.8999387447749108e+00 +1.8851077939375453e-02 -3.4697432111003951e-01 +2.4217221279393408e-03
-7.9999999999999876e+00 +4.6190716315687004e+00 +0.0000000000000000e+00 -7.9999363890593935e+00 +1.8851044762700931e-02 -3.4697427928136959e-01 +2.4217206379547780e-03
-8.0999999999999872e+00 +4.6183766077886732e+00 +0.0000000000000000e+00 -8.0999339737088896e+00 +1.8851025630895021e-02 -3.4697423787326648e-01 +2.4217198427662848e-03
-8.1999999999999869e+00 +4.6176729503149074e+00 +0.0000000000000000e+00 -8.1999314979779818e+00 +1.8851019790634912e-02 -3.4697419679123787e-01 +2.4217197147346349e-03
-8.2999999999999865e+00 +4.6169606591536718e+00 +0.0000000000000000e+00 -8.2999289611212514e+00 +1.8851026123083290e-02 -3.4697415587677716e-01 +2.4217201874202825e-03
-8.3999999999999861e+00 +4.6162397343112929e+00 +0.0000000000000000e+00 -8.3999263623932823e+00 +1.8851043508433151e-02 -3.4697411497130420e-01 +2.4217211944936698e-03
-8.4999999999999858e+00 +4.6155101757941646e+00 +0.0000000000000000e+00 -8.4999237010486581e+00 +1.8851070825875504e-02 -3.4697407391615864e-01 +2.4217226697390878e-03
-8.5999999999999854e+00 +4.6147719836087457e+00 +0.0000000000000000e+00 -8.5999209763419646e+00 +1.8851106953567155e-02 -3.4697403255259424e-01 +2.4217245470585401e-03
-8.6999999999999851e+00 +4.6140251577615699e+00 +0.0000000000000000e+00 -8.6999181875277873e+00 +1.8851150768598491e-02 -3.4697399072177132e-01 +2.4217267604756169e-03
-8.7999999999999847e+00 +4.6132696982592449e+00 +0.0000000000000000e+00 -8.7999153338607119e+00 +1.8851201146961333e-02 -3.4697394826475170e-01 +2.4217292441393542e-03
-8.8999999999999844e+00 +4.6125056051084590e+00 +0.0000000000000000e+00 -8.8999124145953257e+00 +1.8851256963516774e-02 -3.4697390502249098e-01 +2.4217319323281070e-03
-8.9999999999999840e+00 +4.6117328783159843e+00 +0.0000000000000000e+00 -8.9999094289862178e+00 +1.8851317091963138e-02 -3.4697386083583354e-01 +2.4217347594534112e-03
-9.0999999999999837e+00 +4.6109515178886804e+00 +0.0000000000000000e+00 -9.0999063762879757e+00 +1.8851380404803875e-02 -3.4697381554550405e-01 +2.4217376600638514e-03
-9.1999999999999833e+00 +4.6101615238334999e+00 +0.0000000000000000e+00 -9.1999032557551903e+00 +1.8851445773315576e-02 -3.4697376899210303e-01 +2.4217405688489292e-03
-9.2999999999999829e+00 +4.6093628961574904e+00 +0.0000000000000000e+00 -9.2999000666424543e+00 +1.8851512067516001e-02 -3.4697372101609886e-01 +2.4217434206429298e-03
-9.3999999999999826e+00 +4.6085556348677992e+00 +0.0000000000000000e+00 -9.3998968082043586e+00 +1.8851578156132118e-02 -3.4697367145782182e-01 +2.4217461504287903e-03
-9.4999999999999822e+00 +4.6077397399716773e+00 +0.0000000000000000e+00 -9.4998934796954959e+00 +1.8851642906568242e-02 -3.4697362015745709e-01 +2.4217486933419637e-03
-9.5999999999999819e+00 +4.6069152114764833e+00 +0.0000000000000000e+00 -9.5998900803704625e+00 +1.8851705184874185e-02 -3.4697356695503817e-01 +2.4217509846742912e-03
-9.6999999999999815e+00 +4.6060820493896886e+00 +0.0000000000000000e+00 -9.6998866094838530e+00 +1.8851763855713421e-02 -3.4697351169044066e-01 +2.4217529598778635e-03
-9.7999999999999812e+00 +4.6052402537188781e+00 +0.0000000000000000e+00 -9.7998830662902652e+00 +1.8851817782331359e-02 -3.4697345420337466e-01 +2.4217545545688942e-03
-9.8999999999999808e+00 +4.6043898244717587e+00 +0.0000000000000000e+00 -9.8998794500442973e+00 +1.8851865826523588e-02 -3.4697339433337826e-01 +2.4217557045315865e-03
-9.9999999999999805e+00 +4.6035307616561596e+00 +0.0000000000000000e+00 -9.9998757600005490e+00 +1.8851906848604289e-02 -3.4697333191981128e-01 +2.4217563457220002e-03
-1.0099999999999980e+01 +4.6026630652800380e+00 +0.0000000000000000e+00 -1.0099871995413622e+01 +1.8851939916929718e-02 -3.4697326690878333e-01 +2.4217564477964568e-03
-1.0199999999999980e+01 +4.6017867353514781e+00 +0.0000000000000000e+00 -1.0199868155538120e+01 +1.8851964940516917e-02 -3.4697319967556373e-01 +2.4217561150817100e-03
-1.0299999999999979e+01 +4.6009017718786849e+00 +0.0000000000000000e+00 -1.0299864239628647e+01 +1.8851982040311518e-02 -3.4697313070299574e-01 +2.4217554855620921e-03
-1.0399999999999979e+01 +4.6000081748699699e+00 +0.0000000000000000e+00 -1.0399860246939809e+01 +1.8851991338307911e-02 -3.4697306047375959e-01 +2.4217546970731890e-03
-1.0499999999999979e+01 +4.5991059443337416e+00 +0.0000000000000000e+00 -1.0499856176726214e+01 +1.8851992957580988e-02 -3.4697298947036798e-01 +2.4217538872976568e-03
-1.0599999999999978e+01 +4.5981950802784910e+00 +0.0000000000000000e+00 -1.0599852028242468e+01 +1.8851987022317919e-02 -3.4697291817516029e-01 +2.4217531937610402e-03
-1.0699999999999978e+01 +4.5972755827127809e+00 +0.0000000000000000e+00 -1.0699847800743182e+01 +1.8851973657850008e-02 -3.4697284707029863e-01 +2.4217527538275916e-03
-1.0799999999999978e+01 +4.5963474516452338e+00 +0.0000000000000000e+00 -1.0799843493482967e+01 +1.8851952990684588e-02 -3.4697277663776188e-01 +2.4217527046960802e-03
-1.0899999999999977e+01 +4.5954106870845202e+00 +0.0000000000000000e+00 -1.0899839105716435e+01 +1.8851925148536938e-02 -3.4697270735934244e-01 +2.4217531833956060e-03
-1.0999999999999977e+01 +4.5944652890393458e+00 +0.0000000000000000e+00 -1.0999834636698195e+01 +1.8851890260362270e-02 -3.4697263971663977e-01 +2.4217543267814057e-03
-1.1099999999999977e+01 +4.5935112575184398e+00 +0.0000000000000000e+00 -1.1099830085682862e+01 +1.8851848456387751e-02 -3.4697257419105715e-01 +2.4217562715306549e-03
-1.1199999999999976e+01 +4.5925485925305436e+00 +0.0000000000000000e+00 -1.1199825451925049e+01 +1.8851799868144569e-02 -3.4697251126379552e-01 +2.4217591541382771e-03
-1.1299999999999976e+01 +4.5915772940843977e+00 +0.0000000000000000e+00 -1.1299820734679370e+01 +1.8851744628500065e-02 -3.4697245141584981e-01 +2.4217631109127364e-03
-1.1399999999999975e+01 +4.5905973621887304e+00 +0.0000000000000000e+00 -1.1399815933200438e+01 +1.8851682871689916e-02 -3.4697239512800365e-01 +2.4217682779718386e-03
-1.1499999999999975e+01 +4.5896087968522465e+00 +0.0000000000000000e+00 -1.1499811046742868e+01 +1.8851614733350289e-02 -3.4697234288082501e-01 +2.4217747912385198e-03
-1.1599999999999975e+01 +4.5886115980836140e+00 +0.0000000000000000e+00 -1.1599806074561275e+01 +1.8851540350550224e-02 -3.4697229515466160e-01 +2.4217827864366471e-03
-1.1699999999999974e+01 +4.5876057658914533e+00 +0.0000000000000000e+00 -1.1699801015910271e+01 +1.8851459861823835e-02 -3.4697225242963575e-01 +2.4217923990867943e-03
