# trajectory
# s[mm] rx[mm] ry[mm] rz[mm] px[rad] py[rad] pz[rad]
0.0000000000000000e+00 +4.6467000000000001e+00 +0.0000000000000000e+00 +0.0000000000000000e+00 +0.0000000000000000e+00 +0.0000000000000000e+00 +1.0000000000000000e+00
-1.0000000000000001e-01 +4.6466943758778818e+00 +0.0000000000000000e+00 -9.9999999789128324e-02 +1.1248244464133102e-04 +0.0000000000000000e+00 +9.9999999367384984e-01
-2.0000000000000001e-01 +4.6466775035106327e+00 +0.0000000000000000e+00 -1.9999999831302651e-01 +2.2496490244082673e-04 +0.0000000000000000e+00 +9.9999997469539603e-01
-3.0000000000000004e-01 +4.6466493828969906e+00 +0.0000000000000000e+00 -2.9999999430646396e-01 +3.3744737232970537e-04 +0.0000000000000000e+00 +9.9999994306463380e-01
-4.0000000000000002e-01 +4.6466100140358018e+00 +0.0000000000000000e+00 -3.9999998650420954e-01 +4.4992985316227180e-04 +0.0000000000000000e+00 +9.9999989878155848e-01
-5.0000000000000000e-01 +4.6465593969260333e+00 +0.0000000000000000e+00 -4.9999997364103171e-01 +5.6241234371590858e-04 +0.0000000000000000e+00 +9.9999984184616530e-01
-5.9999999999999998e-01 +4.6464975315667774e+00 +0.0000000000000000e+00 -5.9999995445169851e-01 +6.7489484269107262e-04 +0.0000000000000000e+00 +9.9999977225844972e-01
-6.9999999999999996e-01 +4.6464244179572596e+00 +0.0000000000000000e+00 -6.9999992767097741e-01 +7.8737734871129640e-04 +0.0000000000000000e+00 +9.9999969001840727e-01
-7.9999999999999993e-01 +4.6463400560968484e+00 +0.0000000000000000e+00 -7.9999989203363553e-01 +8.9985986032319423e-04 +0.0000000000000000e+00 +9.9999959512603387e-01
-8.9999999999999991e-01 +4.6462444459850598e+00 +0.0000000000000000e+00 -8.9999984627443963e-01 +1.0123423759964742e-03 +0.0000000000000000e+00 +9.9999948758132551e-01
-9.9999999999999989e-01 +4.6461375876215669e+00 +0.0000000000000000e+00 -9.9999978912815601e-01 +1.1248248941239541e-03 +0.0000000000000000e+00 +9.9999936738427864e-01
-1.0999999999999999e+00 +4.6460194810062090e+00 +0.0000000000000000e+00 -1.0999997193295505e+00 +1.2373074130215835e-03 +0.0000000000000000e+00 +9.9999923453488981e-01
-1.2000000000000000e+00 +4.6458901261389958e+00 +0.0000000000000000e+00 -1.1999996356133891e+00 +1.3497899309284696e-03 +0.0000000000000000e+00 +9.9999908903315615e-01
-1.3000000000000000e+00 +4.6457495230201173e+00 +0.0000000000000000e+00 -1.2999995367144368e+00 +1.4622724460069093e-03 +0.0000000000000000e+00 +9.9999893087907521e-01
-1.4000000000000001e+00 +4.6455976716499521e+00 +0.0000000000000000e+00 -1.3999994213674591e+00 +1.5747549563424259e-03 +0.0000000000000000e+00 +9.9999876007264488e-01
-1.5000000000000002e+00 +4.6454345720290728e+00 +0.0000000000000000e+00 -1.4999992883072208e+00 +1.6872374599438099e-03 +0.0000000000000000e+00 +9.9999857661386371e-01
-1.6000000000000003e+00 +4.6452602241582559e+00 +0.0000000000000000e+00 -1.5999991362684869e+00 +1.7997199547431669e-03 +0.0000000000000000e+00 +9.9999838050273071e-01
-1.7000000000000004e+00 +4.6450746280384889e+00 +0.0000000000000000e+00 -1.6999989639860220e+00 +1.9122024385959679e-03 +0.0000000000000000e+00 +9.9999817173924554e-01
-1.8000000000000005e+00 +4.6448777836709763e+00 +0.0000000000000000e+00 -1.7999987701945910e+00 +2.0246849092811071e-03 +0.0000000000000000e+00 +9.9999795032340832e-01
-1.9000000000000006e+00 +4.6446696910571488e+00 +0.0000000000000000e+00 -1.8999985536289588e+00 +2.1371673645009621e-03 +0.0000000000000000e+00 +9.9999771625522016e-01
-2.0000000000000004e+00 +4.6444503501986709e+00 +0.0000000000000000e+00 -1.9999983130238901e+00 +2.2496498018814625e-03 +0.0000000000000000e+00 +9.9999746953468271e-01
-2.1000000000000005e+00 +4.6442197610974487e+00 +0.0000000000000000e+00 -2.0999980471141502e+00 +2.3621322189725999e-03 +0.0000000000000000e+00 +9.9999721016179832e-01
-2.2000000000000006e+00 +4.6439779237556369e+00 +0.0000000000000000e+00 -2.1999977546345049e+00 +2.4746146132533339e-03 +0.0000000000000000e+00 +9.9999693813657031e-01
-2.3000000000000007e+00 +4.6437248381756451e+00 +0.0000000000000000e+00 -2.2999974343197196e+00 +2.5870969821364469e-03 +0.0000000000000000e+00 +9.9999665345900268e-01
-2.4000000000000008e+00 +4.6434605043601449e+00 +0.0000000000000000e+00 -2.3999970849045607e+00 +2.6995793229689672e-03 +0.0000000000000000e+00 +9.9999635612910043e-01
-2.5000000000000009e+00 +4.6431849223120771e+00 +0.0000000000000000e+00 -2.4999967051237952e+00 +2.8120616330321452e-03 +0.0000000000000000e+00 +9.9999604614686932e-01
-2.6000000000000010e+00 +4.6428980920346570e+00 +0.0000000000000000e+00 -2.5999962937121905e+00 +2.9245439095414213e-03 +0.0000000000000000e+00 +9.9999572351231625e-01
-2.7000000000000011e+00 +4.6426000135313821e+00 +0.0000000000000000e+00 -2.6999958494045146e+00 +3.0370261496463899e-03 +0.0000000000000000e+00 +9.9999538822544876e-01
-2.8000000000000012e+00 +4.6422906868060378e+00 +0.0000000000000000e+00 -2.7999953709355365e+00 +3.1495083504307565e-03 +0.0000000000000000e+00 +9.9999504028627573e-01
-2.9000000000000012e+00 +4.6419701118627055e+00 +0.0000000000000000e+00 -2.8999948570400265e+00 +3.2619905089122897e-03 +0.0000000000000000e+00 +9.9999467969480693e-01
-3.0000000000000013e+00 +4.6416382887057672e+00 +0.0000000000000000e+00 -2.9999943064527552e+00 +3.3744726220427644e-03 +0.0000000000000000e+00 +9.9999430645105314e-01
-3.1000000000000014e+00 +4.6412952173399127e+00 +0.0000000000000000e+00 -3.0999937179084949e+00 +3.4869546867079024e-03 +0.0000000000000000e+00 +9.9999392055502645e-01
-3.2000000000000015e+00 +4.6409408977701467e+00 +0.0000000000000000e+00 -3.1999930901420188e+00 +3.5994366997273049e-03 +0.0000000000000000e+00 +9.9999352200673997e-01
-3.3000000000000016e+00 +4.6405753300017967e+00 +0.0000000000000000e+00 -3.2999924218881014e+00 +3.7119186578543802e-03 +0.0000000000000000e+00 +9.9999311080620812e-01
-3.4000000000000017e+00 +4.6401985140405158e+00 +0.0000000000000000e+00 -3.3999917118815195e+00 +3.8244005577762639e-03 +0.0000000000000000e+00 +9.9999268695344634e-01
-3.5000000000000018e+00 +4.6398104498922939e+00 +0.0000000000000000e+00 -3.4999909588570506e+00 +3.9368823961137356e-03 +0.0000000000000000e+00 +9.9999225044847162e-01
-3.6000000000000019e+00 +4.6394111375634610e+00 +0.0000000000000000e+00 -3.5999901615494743e+00 +4.0493641694211253e-03 +0.0000000000000000e+00 +9.9999180129130205e-01
-3.7000000000000020e+00 +4.6390005770606946e+00 +0.0000000000000000e+00 -3.6999893186935719e+00 +4.1618458741862199e-03 +0.0000000000000000e+00 +9.9999133948195729e-01
-3.8000000000000020e+00 +4.6385787683910280e+00 +0.0000000000000000e+00 -3.7999884290241273e+00 +4.2743275068301582e-03 +0.0000000000000000e+00 +9.9999086502045809e-01
-3.9000000000000021e+00 +4.6381457115618545e+00 +0.0000000000000000e+00 -3.8999874912759260e+00 +4.3868090637073235e-03 +0.0000000000000000e+00 +9.9999037790682677e-01
-4.0000000000000018e+00 +4.6377014065809359e+00 +0.0000000000000000e+00 -3.9999865041837559e+00 +4.4992905411052270e-03 +0.0000000000000000e+00 +9.9998987814108720e-01
-4.1000000000000014e+00 +4.6372458534564087e+00 +0.0000000000000000e+00 -4.0999854664824076e+00 +4.6117719352575014e-03 +0.0000000000000000e+00 +9.9998936572326447e-01
-4.2000000000000011e+00 +4.6367790521967827e+00 +0.0000000000000000e+00 -4.1999843769066736e+00 +4.7242532424880768e-03 +0.0000000000000000e+00 +9.9998884065338467e-01
-4.3000000000000007e+00 +4.6363010028109235e+00 +0.0000000000000000e+00 -4.2999832341913500e+00 +4.8367344593555073e-03 +0.0000000000000000e+00 +9.9998830293147389e-01
-4.4000000000000004e+00 +4.6358117053080301e+00 +0.0000000000000000e+00 -4.3999820370712346e+00 +4.9492155826661556e-03 +0.0000000000000000e+00 +9.9998775255755801e-01
-4.5000000000000000e+00 +4.6353111596976069e+00 +0.0000000000000000e+00 -4.4999807842811288e+00 +5.0616966094742654e-03 +0.0000000000000000e+00 +9.9998718953166255e-01
-4.5999999999999996e+00 +4.6347993659894415e+00 +0.0000000000000000e+00 -4.5999794745558358e+00 +5.1741775370820371e-03 +0.0000000000000000e+00 +9.9998661385381271e-01
-4.6999999999999993e+00 +4.6342763241935785e+00 +0.0000000000000000e+00 -4.6999781066301605e+00 +5.2866583630397073e-03 +0.0000000000000000e+00 +9.9998602552403304e-01
-4.7999999999999989e+00 +4.6337420343202957e+00 +0.0000000000000000e+00 -4.7999766792389122e+00 +5.3991390851456395e-03 +0.0000000000000000e+00 +9.9998542454234740e-01
-4.8999999999999986e+00 +4.6331964963800774e+00 +0.0000000000000000e+00 -4.8999751911169005e+00 +5.5116197014464120e-03 +0.0000000000000000e+00 +9.9998481090877878e-01
-4.9999999999999982e+00 +4.6326397103835912e+00 +0.0000000000000000e+00 -4.9999736409989390e+00 +5.6241002102369198e-03 +0.0000000000000000e+00 +9.9998418462334926e-01
-5.0999999999999979e+00 +4.6320716763416625e+00 +0.0000000000000000e+00 -5.0999720276198426e+00 +5.7365806100604768e-03 +0.0000000000000000e+00 +9.9998354568607961e-01
-5.1999999999999975e+00 +4.6314923942652513e+00 +0.0000000000000000e+00 -5.1999703497144276e+00 +5.8490608997089216e-03 +0.0000000000000000e+00 +9.9998289409698948e-01
-5.2999999999999972e+00 +4.6309018641654252e+00 +0.0000000000000000e+00 -5.2999686060175133e+00 +5.9615410782227363e-03 +0.0000000000000000e+00 +9.9998222985609697e-01
-5.3999999999999968e+00 +4.6303000860533352e+00 +0.0000000000000000e+00 -5.3999667952639205e+00 +6.0740211448911622e-03 +0.0000000000000000e+00 +9.9998155296341873e-01
-5.4999999999999964e+00 +4.6296870599401911e+00 +0.0000000000000000e+00 -5.4999649161884712e+00 +6.1865010992523265e-03 +0.0000000000000000e+00 +9.9998086341896975e-01
-5.5999999999999961e+00 +4.6290627858372364e+00 +0.0000000000000000e+00 -5.5999629675259888e+00 +6.2989809410933708e-03 +0.0000000000000000e+00 +9.9998016122276301e-01
-5.6999999999999957e+00 +4.6284272637557224e+00 +0.0000000000000000e+00 -5.6999609480112987e+00 +6.4114606704505882e-03 +0.0000000000000000e+00 +9.9997944637480951e-01
-5.7999999999999954e+00 +4.6277804937068865e+00 +0.0000000000000000e+00 -5.7999588563792264e+00 +6.5239402876095618e-03 +0.0000000000000000e+00 +9.9997871887511836e-01
-5.8999999999999950e+00 +4.6271224757019231e+00 +0.0000000000000000e+00 -5.8999566913645980e+00 +6.6364197931053125e-03 +0.0000000000000000e+00 +9.9997797872369620e-01
-5.9999999999999947e+00 +4.6264532097519622e+00 +0.0000000000000000e+00 -5.9999544517022416e+00 +6.7488991877224487e-03 +0.0000000000000000e+00 +9.9997722592054727e-01
-6.0999999999999943e+00 +4.6257726958680410e+00 +0.0000000000000000e+00 -6.0999521361269835e+00 +6.8613784724733517e-03 +0.0000000000000000e+00 +9.9997646046567357e-01
-6.1999999999999940e+00 +4.6250809340610957e+00 +0.0000000000000000e+00 -6.1999497433736517e+00 +6.9738576483563131e-03 +0.0000000000000000e+00 +9.9997568235907608e-01
-6.2999999999999936e+00 +4.6243779243419736e+00 +0.0000000000000000e+00 -6.2999472721770742e+00 +7.0863367161132949e-03 +0.0000000000000000e+00 +9.9997489160075670e-01
-6.3999999999999932e+00 +4.6236636667214617e+00 +0.0000000000000000e+00 -6.3999447212720790e+00 +7.1988156762078041e-03 +0.0000000000000000e+00 +9.9997408819071865e-01
-6.4999999999999929e+00 +4.6229381612103140e+00 +0.0000000000000000e+00 -6.4999420893934943e+00 +7.3112945288248037e-03 +0.0000000000000000e+00 +9.9997327212896647e-01
-6.5999999999999925e+00 +4.6222014078192819e+00 +0.0000000000000000e+00 -6.5999393752761488e+00 +7.4237732738706205e-03 +0.0000000000000000e+00 +9.9997244341550606e-01
-6.6999999999999922e+00 +4.6214534065591382e+00 +0.0000000000000000e+00 -6.6999365776548725e+00 +7.5362519109728526e-03 +0.0000000000000000e+00 +9.9997160205034508e-01
-6.7999999999999918e+00 +4.6206941574407070e+00 +0.0000000000000000e+00 -6.7999336952644951e+00 +7.6487304394802684e-03 +0.0000000000000000e+00 +9.9997074803349295e-01
-6.8999999999999915e+00 +4.6199236604748926e+00 +0.0000000000000000e+00 -6.8999307268398482e+00 +7.7612088584627014e-03 +0.0000000000000000e+00 +9.9996988136496123e-01
-6.9999999999999911e+00 +4.6191419156727056e+00 +0.0000000000000000e+00 -6.9999276711157652e+00 +7.8736871667109461e-03 +0.0000000000000000e+00 +9.9996900204476347e-01
-7.0999999999999908e+00 +4.6183489230452910e+00 +0.0000000000000000e+00 -7.0999245268270794e+00 +7.9861653627366427e-03 +0.0000000000000000e+00 +9.9996811007291553e-01
-7.1999999999999904e+00 +4.6175446826039579e+00 +0.0000000000000000e+00 -7.1999212927086269e+00 +8.0986434447721627e-03 +0.0000000000000000e+00 +9.9996720544943574e-01
-7.2999999999999901e+00 +4.6167291943602047e+00 +0.0000000000000000e+00 -7.2999179674952464e+00 +8.2111214107704888e-03 +0.0000000000000000e+00 +9.9996628817434496e-01
-7.3999999999999897e+00 +4.6159024583257491e+00 +0.0000000000000000e+00 -7.3999145499217764e+00 +8.3235992584050900e-03 +0.0000000000000000e+00 +9.9996535824766697e-01
-7.4999999999999893e+00 +4.6150644745125557e+00 +0.0000000000000000e+00 -7.4999110387230612e+00 +8.4360769850697955e-03 +0.0000000000000000e+00 +9.9996441566942840e-01
-7.5999999999999890e+00 +4.6142152429328638e+00 +0.0000000000000000e+00 -7.5999074326339446e+00 +8.5485545878786623e-03 +0.0000000000000000e+00 +9.9996346043965900e-01
-7.6999999999999886e+00 +4.6133547635992143e+00 +0.0000000000000000e+00 -7.6999037303892761e+00 +8.6610320636658373e-03 +0.0000000000000000e+00 +9.9996249255839165e-01
-7.7999999999999883e+00 +4.6124830365244796e+00 +0.0000000000000000e+00 -7.7998999307239076e+00 +8.7735094089854207e-03 +0.0000000000000000e+00 +9.9996151202566275e-01
-7.8999999999999879e+00 +4.6116000617218900e+00 +0.0000000000000000e+00 -7.8998960323726948e+00 +8.8859866201113219e-03 +0.0000000000000000e+00 +9.9996051884151227e-01
-7.9999999999999876e+00 +4.6107058392050631e+00 +0.0000000000000000e+00 -7.9998920340704975e+00 +8.9984636930371103e-03 +0.0000000000000000e+00 +9.9995951300598385e-01
-8.0999999999999872e+00 +4.6098003689880311e+00 +0.0000000000000000e+00 -8.0998879345521804e+00 +9.1109406234966689e-03 +0.0000000000000000e+00 +9.9995849451912477e-01
-8.1999999999999869e+00 +4.6088836510852564e+00 +0.0000000000000000e+00 -8.1998837325526122e+00 +9.2234174071935925e-03 +0.0000000000000000e+00 +9.9995746338098401e-01
-8.2999999999999865e+00 +4.6079556855116213e+00 +0.0000000000000000e+00 -8.2998794268066689e+00 +9.3358940400312829e-03 +0.0000000000000000e+00 +9.9995641959161030e-01
-8.3999999999999861e+00 +4.6070164722824076e+00 +0.0000000000000000e+00 -8.3998750160492275e+00 +9.4483705181340420e-03 +0.0000000000000000e+00 +9.9995536315105149e-01
-8.4999999999999858e+00 +4.6060660114132741e+00 +0.0000000000000000e+00 -8.4998704990151737e+00 +9.5608468378471922e-03 +0.0000000000000000e+00 +9.9995429405935476e-01
-8.5999999999999854e+00 +4.6051043029202328e+00 +0.0000000000000000e+00 -8.5998658744393950e+00 +9.6733229957372026e-03 +0.0000000000000000e+00 +9.9995321231656609e-01
-8.6999999999999851e+00 +4.6041313468196279e+00 +0.0000000000000000e+00 -8.6998611410567843e+00 +9.7857989885918196e-03 +0.0000000000000000e+00 +9.9995211792273042e-01
-8.7999999999999847e+00 +4.6031471431281155e+00 +0.0000000000000000e+00 -8.7998562976022399e+00 +9.8982748134201961e-03 +0.0000000000000000e+00 +9.9995101087789162e-01
-8.8999999999999844e+00 +4.6021516918626375e+00 +0.0000000000000000e+00 -8.8998513428106634e+00 +1.0010750467453032e-02 +0.0000000000000000e+00 +9.9994989118209199e-01
-8.9999999999999840e+00 +4.6011449930404034e+00 +0.0000000000000000e+00 -8.9998462754169601e+00 +1.0123225948142713e-02 +0.0000000000000000e+00 +9.9994875883537260e-01
-9.0999999999999837e+00 +4.6001270466788649e+00 +0.0000000000000000e+00 -9.0998410941560408e+00 +1.0235701253163455e-02 +0.0000000000000000e+00 +9.9994761383777264e-01
-9.1999999999999833e+00 +4.5990978527956967e+00 +0.0000000000000000e+00 -9.1998357977628196e+00 +1.0348176380411451e-02 +0.0000000000000000e+00 +9.9994645618932976e-01
-9.2999999999999829e+00 +4.5980574114087718e+00 +0.0000000000000000e+00 -9.2998303849722141e+00 +1.0460651328005022e-02 +0.0000000000000000e+00 +9.9994528589007969e-01
-9.3999999999999826e+00 +4.5970057225361405e+00 +0.0000000000000000e+00 -9.3998248545191441e+00 +1.0573126094284777e-02 +0.0000000000000000e+00 +9.9994410294005620e-01
-9.4999999999999822e+00 +4.5959427861960069e+00 +0.0000000000000000e+00 -9.4998192051385342e+00 +1.0685600677813762e-02 +0.0000000000000000e+00 +9.9994290733929092e-01
-9.5999999999999819e+00 +4.5948686024067102e+00 +0.0000000000000000e+00 -9.5998134355653111e+00 +1.0798075077377631e-02 +0.0000000000000000e+00 +9.9994169908781316e-01
-9.6999999999999815e+00 +4.5937831711866970e+00 +0.0000000000000000e+00 -9.6998075445344067e+00 +1.0910549291984808e-02 +0.0000000000000000e+00 +9.9994047818565013e-01
-9.7999999999999812e+00 +4.5926864925545043e+00 +0.0000000000000000e+00 -9.7998015307807531e+00 +1.1023023320866656e-02 +0.0000000000000000e+00 +9.9993924463282624e-01
-9.8999999999999808e+00 +4.5915785665287334e+00 +0.0000000000000000e+00 -9.8997953930392839e+00 +1.1135497163477649e-02 +0.0000000000000000e+00 +9.9993799842936348e-01
-9.9999999999999805e+00 +4.5904593931280289e+00 +0.0000000000000000e+00 -9.9997891300449382e+00 +1.1247970819495551e-02 +0.0000000000000000e+00 +9.9993673957528095e-01
-1.0099999999999980e+01 +4.5893289723710575e+00 +0.0000000000000000e+00 -1.0099782740532653e+01 +1.1360444288809149e-02 +0.0000000000000000e+00 +9.9993546807059519e-01
-1.0199999999999980e+01 +4.5881873042764916e+00 +0.0000000000000000e+00 -1.0199776223237370e+01 +1.1472917571380728e-02 +0.0000000000000000e+00 +9.9993418391532141e-01
-1.0299999999999979e+01 +4.5870343888630094e+00 +0.0000000000000000e+00 -1.0299769576894031e+01 +1.1585390667107722e-02 +0.0000000000000000e+00 +9.9993288710947492e-01
-1.0399999999999979e+01 +4.5858702261493036e+00 +0.0000000000000000e+00 -1.0399762800237580e+01 +1.1697863575809929e-02 +0.0000000000000000e+00 +9.9993157765307183e-01
-1.0499999999999979e+01 +4.5846948161540899e+00 +0.0000000000000000e+00 -1.0499755892002961e+01 +1.1810336297229364e-02 +0.0000000000000000e+00 +9.9993025554612847e-01
-1.0599999999999978e+01 +4.5835081588961115e+00 +0.0000000000000000e+00 -1.0599748850925121e+01 +1.1922808831030116e-02 +0.0000000000000000e+00 +9.9992892078866191e-01
-1.0699999999999978e+01 +4.5823102543941516e+00 +0.0000000000000000e+00 -1.0699741675739009e+01 +1.2035281176798191e-02 +0.0000000000000000e+00 +9.9992757338068983e-01
-1.0799999999999978e+01 +4.5811011026670361e+00 +0.0000000000000000e+00 -1.0799734365179576e+01 +1.2147753334041353e-02 +0.0000000000000000e+00 +9.9992621332223042e-01
-1.0899999999999977e+01 +4.5798807037336458e+00 +0.0000000000000000e+00 -1.0899726917981774e+01 +1.2260225302188966e-02 +0.0000000000000000e+00 +9.9992484061330278e-01
-1.0999999999999977e+01 +4.5786490576129228e+00 +0.0000000000000000e+00 -1.0999719332880556e+01 +1.2372697080591829e-02 +0.0000000000000000e+00 +9.9992345525392656e-01
-1.1099999999999977e+01 +4.5774061643238770e+00 +0.0000000000000000e+00 -1.1099711608610878e+01 +1.2485168668522001e-02 +0.0000000000000000e+00 +9.9992205724412231e-01
-1.1199999999999976e+01 +4.5761520238855944e+00 +0.0000000000000000e+00 -1.1199703743907699e+01 +1.2597640065172638e-02 +0.0000000000000000e+00 +9.9992064658391144e-01
-1.1299999999999976e+01 +4.5748866363172480e+00 +0.0000000000000000e+00 -1.1299695737505981e+01 +1.2710111269657804e-02 +0.0000000000000000e+00 +9.9991922327331628e-01
-1.1399999999999975e+01 +4.5736100016381007e+00 +0.0000000000000000e+00 -1.1399687588140685e+01 +1.2822582281012294e-02 +0.0000000000000000e+00 +9.9991778731235992e-01
-1.1499999999999975e+01 +4.5723221198675175e+00 +0.0000000000000000e+00 -1.1499679294546775e+01 +1.2935053098191446e-02 +0.0000000000000000e+00 +9.9991633870106655e-01
-1.1599999999999975e+01 +4.5710229910249716e+00 +0.0000000000000000e+00 -1.1599670855459221e+01 +1.3047523720070954e-02 +0.0000000000000000e+00 +9.9991487743946150e-01
-1.1699999999999974e+01 +4.5697126151300527e+00 +0.0000000000000000e+00 -1.1699662269612991e+01 +1.3159994145446673e-02 +0.0000000000000000e+00 +9.9991340352757097e-01
