# trajectory
# s[mm] rx[mm] ry[mm] rz[mm] px[rad] py[rad] pz[rad]
0.0000000000000000e+00 +4.6467000000000001e+00 +0.0000000000000000e+00 +0.0000000000000000e+00 +0.0000000000000000e+00 +0.0000000000000000e+00 +1.0000000000000000e+00
-1.0000000000000001e-01 +4.6466956943481854e+00 +0.0000000000000000e+00 -9.9999999876409090e-02 +8.6113038862801344e-05 +0.0000000000000000e+00 +9.9999999629227221e-01
-2.0000000000000001e-01 +4.6466827773916783e+00 +0.0000000000000000e+00 -1.9999999901127252e-01 +1.7222609420107239e-04 +0.0000000000000000e+00 +9.9999998516908606e-01
-3.0000000000000004e-01 +4.6466612491287300e+00 +0.0000000000000000e+00 -2.9999999666304422e-01 +2.5833916799433931e-04 +0.0000000000000000e+00 +9.9999996663043655e-01
-4.0000000000000002e-01 +4.6466311095574051e+00 +0.0000000000000000e+00 -3.9999999209017756e-01 +3.4445226201123262e-04 +0.0000000000000000e+00 +9.9999994067631781e-01
-5.0000000000000000e-01 +4.6465923586756013e+00 +0.0000000000000000e+00 -4.9999998455112526e-01 +4.3056537780948503e-04 +0.0000000000000000e+00 +9.9999990730672339e-01
-5.9999999999999998e-01 +4.6465449964810714e+00 +0.0000000000000000e+00 -5.9999997330433952e-01 +5.1667851673593249e-04 +0.0000000000000000e+00 +9.9999986652164619e-01
-6.9999999999999996e-01 +4.6464890229714451e+00 +0.0000000000000000e+00 -6.9999995760827161e-01 +6.0279167992651633e-04 +0.0000000000000000e+00 +9.9999981832107876e-01
-7.9999999999999993e-01 +4.6464244381442468e+00 +0.0000000000000000e+00 -7.9999993672137204e-01 +6.8890486830628836e-04 +0.0000000000000000e+00 +9.9999976270501301e-01
-8.9999999999999991e-01 +4.6463512419969204e+00 +0.0000000000000000e+00 -8.9999990990209067e-01 +7.7501808258941766e-04 +0.0000000000000000e+00 +9.9999969967344071e-01
-9.9999999999999989e-01 +4.6462694345268485e+00 +0.0000000000000000e+00 -9.9999987640887633e-01 +8.6113132327919964e-04 +0.0000000000000000e+00 +9.9999962922635333e-01
-1.0999999999999999e+00 +4.6461790157313745e+00 +0.0000000000000000e+00 -1.0999998355001772e+00 +9.4724459066806716e-04 +0.0000000000000000e+00 +9.9999955136374208e-01
-1.2000000000000000e+00 +4.6460799856078223e+00 +0.0000000000000000e+00 -1.1999997864344403e+00 +1.0333578848376037e-03 +0.0000000000000000e+00 +9.9999946608559842e-01
-1.3000000000000000e+00 +4.6459723441535186e+00 +0.0000000000000000e+00 -1.2999997284701121e+00 +1.1194712056585591e-03 +0.0000000000000000e+00 +9.9999937339191358e-01
-1.4000000000000001e+00 +4.6458560913658138e+00 +0.0000000000000000e+00 -1.3999996608656380e+00 +1.2055845527908667e-03 +0.0000000000000000e+00 +9.9999927328267901e-01
-1.5000000000000002e+00 +4.6457312272421021e+00 +0.0000000000000000e+00 -1.4999995828794626e+00 +1.2916979256836633e-03 +0.0000000000000000e+00 +9.9999916575788650e-01
-1.6000000000000003e+00 +4.6455977517798441e+00 +0.0000000000000000e+00 -1.5999994937700297e+00 +1.3778113235753105e-03 +0.0000000000000000e+00 +9.9999905081752793e-01
-1.7000000000000004e+00 +4.6454556649765859e+00 +0.0000000000000000e+00 -1.6999993927957824e+00 +1.4639247454934189e-03 +0.0000000000000000e+00 +9.9999892846159577e-01
-1.8000000000000005e+00 +4.6453049668299835e+00 +0.0000000000000000e+00 -1.7999992792151629e+00 +1.5500381902548742e-03 +0.0000000000000000e+00 +9.9999879869008290e-01
-1.9000000000000006e+00 +4.6451456573378200e+00 +0.0000000000000000e+00 -1.8999991522866129e+00 +1.6361516564658654e-03 +0.0000000000000000e+00 +9.9999866150298289e-01
-2.0000000000000004e+00 +4.6449777364980287e+00 +0.0000000000000000e+00 -1.9999990112685730e+00 +1.7222651425219141e-03 +0.0000000000000000e+00 +9.9999851690028974e-01
-2.1000000000000005e+00 +4.6448012043087141e+00 +0.0000000000000000e+00 -2.0999988554194839e+00 +1.8083786466140453e-03 +0.0000000000000000e+00 +9.9999836488199856e-01
-2.2000000000000006e+00 +4.6446160607681692e+00 +0.0000000000000000e+00 -2.1999986839977859e+00 +1.8944921667963298e-03 +0.0000000000000000e+00 +9.9999820544810492e-01
-2.3000000000000007e+00 +4.6444223058748859e+00 +0.0000000000000000e+00 -2.2999984962619182e+00 +1.9806057010534049e-03 +0.0000000000000000e+00 +9.9999803859860503e-01
-2.4000000000000008e+00 +4.6442199396275594e+00 +0.0000000000000000e+00 -2.3999982914703200e+00 +2.0667192473066008e-03 +0.0000000000000000e+00 +9.9999786433349602e-01
-2.5000000000000009e+00 +4.6440089620250964e+00 +0.0000000000000000e+00 -2.4999980688814305e+00 +2.1528328034139273e-03 +0.0000000000000000e+00 +9.9999768265277533e-01
-2.6000000000000010e+00 +4.6437893730666220e+00 +0.0000000000000000e+00 -2.5999978277536879e+00 +2.2389463671700538e-03 +0.0000000000000000e+00 +9.9999749355644141e-01
-2.7000000000000011e+00 +4.6435611727514834e+00 +0.0000000000000000e+00 -2.6999975673455316e+00 +2.3250599363062903e-03 +0.0000000000000000e+00 +9.9999729704449336e-01
-2.8000000000000012e+00 +4.6433243610792587e+00 +0.0000000000000000e+00 -2.7999972869153997e+00 +2.4111735084905617e-03 +0.0000000000000000e+00 +9.9999709311693108e-01
-2.9000000000000012e+00 +4.6430789380497632e+00 +0.0000000000000000e+00 -2.8999969857217307e+00 +2.4972870813273814e-03 +0.0000000000000000e+00 +9.9999688177375512e-01
-3.0000000000000013e+00 +4.6428249036630538e+00 +0.0000000000000000e+00 -2.9999966630229635e+00 +2.5834006523578201e-03 +0.0000000000000000e+00 +9.9999666301496704e-01
-3.1000000000000014e+00 +4.6425622579194359e+00 +0.0000000000000000e+00 -3.0999963180775372e+00 +2.6695142190594733e-03 +0.0000000000000000e+00 +9.9999643684056916e-01
-3.2000000000000015e+00 +4.6422910008194718e+00 +0.0000000000000000e+00 -3.1999959501438906e+00 +2.7556277788464223e-03 +0.0000000000000000e+00 +9.9999620325056471e-01
-3.3000000000000016e+00 +4.6420111323639848e+00 +0.0000000000000000e+00 -3.2999955584804632e+00 +2.8417413290691973e-03 +0.0000000000000000e+00 +9.9999596224495768e-01
-3.4000000000000017e+00 +4.6417226525540665e+00 +0.0000000000000000e+00 -3.3999951423456953e+00 +2.9278548670147318e-03 +0.0000000000000000e+00 +9.9999571382375330e-01
-3.5000000000000018e+00 +4.6414255613910829e+00 +0.0000000000000000e+00 -3.4999947009980272e+00 +3.0139683899063192e-03 +0.0000000000000000e+00 +9.9999545798695744e-01
-3.6000000000000019e+00 +4.6411198588766815e+00 +0.0000000000000000e+00 -3.5999942336959005e+00 +3.1000818949035607e-03 +0.0000000000000000e+00 +9.9999519473457721e-01
-3.7000000000000020e+00 +4.6408055450127961e+00 +0.0000000000000000e+00 -3.6999937396977569e+00 +3.1861953791023157e-03 +0.0000000000000000e+00 +9.9999492406662061e-01
-3.8000000000000020e+00 +4.6404826198016540e+00 +0.0000000000000000e+00 -3.7999932182620393e+00 +3.2723088395346452e-03 +0.0000000000000000e+00 +9.9999464598309662e-01
-3.9000000000000021e+00 +4.6401510832457831e+00 +0.0000000000000000e+00 -3.8999926686471911e+00 +3.3584222731687530e-03 +0.0000000000000000e+00 +9.9999436048401547e-01
-4.0000000000000018e+00 +4.6398109353480166e+00 +0.0000000000000000e+00 -3.9999920901116575e+00 +3.4445356769089264e-03 +0.0000000000000000e+00 +9.9999406756938836e-01
-4.1000000000000014e+00 +4.6394621761115022e+00 +0.0000000000000000e+00 -4.0999914819138841e+00 +3.5306490476068541e-03 +0.0000000000000000e+00 +9.9999376723922762e-01
-4.2000000000000011e+00 +4.6391048055396995e+00 +0.0000000000000000e+00 -4.1999908433123183e+00 +3.6167623821868286e-03 +0.0000000000000000e+00 +9.9999345949354623e-01
-4.3000000000000007e+00 +4.6387388236363654e+00 +0.0000000000000000e+00 -4.2999901735654094e+00 +3.7028756777709921e-03 +0.0000000000000000e+00 +9.9999314433235731e-01
-4.4000000000000004e+00 +4.6383642304055348e+00 +0.0000000000000000e+00 -4.3999894719316064e+00 +3.7889889316907038e-03 +0.0000000000000000e+00 +9.9999282175567406e-01
-4.5000000000000000e+00 +4.6379810258514986e+00 +0.0000000000000000e+00 -4.4999887376693612e+00 +3.8751021414865166e-03 +0.0000000000000000e+00 +9.9999249176350957e-01
-4.5999999999999996e+00 +4.6375892099787839e+00 +0.0000000000000000e+00 -4.5999879700371258e+00 +3.9612153049081522e-03 +0.0000000000000000e+00 +9.9999215435587685e-01
-4.6999999999999993e+00 +4.6371887827921316e+00 +0.0000000000000000e+00 -4.6999871682933545e+00 +4.0473284199144767e-03 +0.0000000000000000e+00 +9.9999180953278866e-01
-4.7999999999999989e+00 +4.6367797442964767e+00 +0.0000000000000000e+00 -4.7999863316965019e+00 +4.1334414846734774e-03 +0.0000000000000000e+00 +9.9999145729425731e-01
-4.8999999999999986e+00 +4.6363620944969268e+00 +0.0000000000000000e+00 -4.8999854595050243e+00 +4.2195544975622357e-03 +0.0000000000000000e+00 +9.9999109764029492e-01
-4.9999999999999982e+00 +4.6359358333987410e+00 +0.0000000000000000e+00 -4.9999845509773797e+00 +4.3056674571669024e-03 +0.0000000000000000e+00 +9.9999073057091281e-01
-5.0999999999999979e+00 +4.6355009610073097e+00 +0.0000000000000000e+00 -5.0999836053720262e+00 +4.3917803622826731e-03 +0.0000000000000000e+00 +9.9999035608612197e-01
-5.1999999999999975e+00 +4.6350574773281341e+00 +0.0000000000000000e+00 -5.1999826219474237e+00 +4.4778932119137619e-03 +0.0000000000000000e+00 +9.9998997418593261e-01
-5.2999999999999972e+00 +4.6346053823668028e+00 +0.0000000000000000e+00 -5.2999815999620328e+00 +4.5640060052733735e-03 +0.0000000000000000e+00 +9.9998958487035416e-01
-5.3999999999999968e+00 +4.6341446761289742e+00 +0.0000000000000000e+00 -5.3999805386743152e+00 +4.6501187417836796e-03 +0.0000000000000000e+00 +9.9998918813939519e-01
-5.4999999999999964e+00 +4.6336753586203532e+00 +0.0000000000000000e+00 -5.4999794373427324e+00 +4.7362314210757902e-03 +0.0000000000000000e+00 +9.9998878399306335e-01
-5.5999999999999961e+00 +4.6331974298466720e+00 +0.0000000000000000e+00 -5.5999782952257489e+00 +4.8223440429897256e-03 +0.0000000000000000e+00 +9.9998837243136507e-01
-5.6999999999999957e+00 +4.6327108898136666e+00 +0.0000000000000000e+00 -5.6999771115818270e+00 +4.9084566075743904e-03 +0.0000000000000000e+00 +9.9998795345430591e-01
-5.7999999999999954e+00 +4.6322157385270595e+00 +0.0000000000000000e+00 -5.7999758856694310e+00 +4.9945691150875462e-03 +0.0000000000000000e+00 +9.9998752706188998e-01
-5.8999999999999950e+00 +4.6317119759925358e+00 +0.0000000000000000e+00 -5.8999746167470262e+00 +5.0806815659957807e-03 +0.0000000000000000e+00 +9.9998709325412016e-01
-5.9999999999999947e+00 +4.6311996022157249e+00 +0.0000000000000000e+00 -5.9999733040730767e+00 +5.1667939609744817e-03 +0.0000000000000000e+00 +9.9998665203099801e-01
-6.0999999999999943e+00 +4.6306786172021770e+00 +0.0000000000000000e+00 -6.0999719469060478e+00 +5.2529063008934463e-03 +0.0000000000000000e+00 +9.9998620339252353e-01
-6.1999999999999940e+00 +4.6301490209573517e+00 +0.0000000000000000e+00 -6.1999705445044038e+00 +5.3390185866587824e-03 +0.0000000000000000e+00 +9.9998574733869616e-01
-6.2999999999999936e+00 +4.6296108134866243e+00 +0.0000000000000000e+00 -6.2999690961266088e+00 +5.4251308190547834e-03 +0.0000000000000000e+00 +9.9998528386951546e-01
-6.3999999999999932e+00 +4.6290639947952981e+00 +0.0000000000000000e+00 -6.3999676010311282e+00 +5.5112429987296272e-03 +0.0000000000000000e+00 +9.9998481298498143e-01
-6.4999999999999929e+00 +4.6285085648886186e+00 +0.0000000000000000e+00 -6.4999660584764269e+00 +5.5973551261954708e-03 +0.0000000000000000e+00 +9.9998433468509429e-01
-6.5999999999999925e+00 +4.6279445237717862e+00 +0.0000000000000000e+00 -6.5999644677209686e+00 +5.6834672018285515e-03 +0.0000000000000000e+00 +9.9998384896985471e-01
-6.6999999999999922e+00 +4.6273718714499719e+00 +0.0000000000000000e+00 -6.6999628280232191e+00 +5.7695792258692907e-03 +0.0000000000000000e+00 +9.9998335583926390e-01
-6.7999999999999918e+00 +4.6267906079283279e+00 +0.0000000000000000e+00 -6.7999611386416428e+00 +5.8556911984224040e-03 +0.0000000000000000e+00 +9.9998285529332365e-01
-6.8999999999999915e+00 +4.6262007332120039e+00 +0.0000000000000000e+00 -6.8999593988347057e+00 +5.9418031194570136e-03 +0.0000000000000000e+00 +9.9998234733203628e-01
-6.9999999999999911e+00 +4.6256022473061593e+00 +0.0000000000000000e+00 -6.9999576078608721e+00 +6.0279149888067679e-03 +0.0000000000000000e+00 +9.9998183195540480e-01
-7.0999999999999908e+00 +4.6249951502159758e+00 +0.0000000000000000e+00 -7.0999557649786080e+00 +6.1140268061699622e-03 +0.0000000000000000e+00 +9.9998130916343286e-01
-7.1999999999999904e+00 +4.6243794419466724e+00 +0.0000000000000000e+00 -7.1999538694463805e+00 +6.2001385711096665e-03 +0.0000000000000000e+00 +9.9998077895612514e-01
-7.2999999999999901e+00 +4.6237551225035194e+00 +0.0000000000000000e+00 -7.2999519205226555e+00 +6.2862502830538566e-03 +0.0000000000000000e+00 +9.9998024133348684e-01
-7.3999999999999897e+00 +4.6231221918918513e+00 +0.0000000000000000e+00 -7.3999499174659000e+00 +6.3723619412955493e-03 +0.0000000000000000e+00 +9.9997969629552430e-01
-7.4999999999999893e+00 +4.6224806501170788e+00 +0.0000000000000000e+00 -7.4999478595345828e+00 +6.4584735449929433e-03 +0.0000000000000000e+00 +9.9997914384224462e-01
-7.5999999999999890e+00 +4.6218304971847033e+00 +0.0000000000000000e+00 -7.5999457459871724e+00 +6.5445850931695627e-03 +0.0000000000000000e+00 +9.9997858397365602e-01
-7.6999999999999886e+00 +4.6211717331003319e+00 +0.0000000000000000e+00 -7.6999435760821378e+00 +6.6306965847144055e-03 +0.0000000000000000e+00 +9.9997801668976771e-01
-7.7999999999999883e+00 +4.6205043578696889e+00 +0.0000000000000000e+00 -7.7999413490779501e+00 +6.7168080183820983e-03 +0.0000000000000000e+00 +9.9997744199059013e-01
-7.8999999999999879e+00 +4.6198283714986301e+00 +0.0000000000000000e+00 -7.8999390642330800e+00 +6.8029193927930534e-03 +0.0000000000000000e+00 +9.9997685987613483e-01
-7.9999999999999876e+00 +4.6191437739931560e+00 +0.0000000000000000e+00 -7.9999367208060015e+00 +6.8890307064336295e-03 +0.0000000000000000e+00 +9.9997627034641456e-01
-8.0999999999999872e+00 +4.6184505653594243e+00 +0.0000000000000000e+00 -8.0999343180551886e+00 +6.9751419576673558e-03 +0.0000000000000000e+00 +9.9997567340144333e-01
-8.1999999999999869e+00 +4.6177487456037580e+00 +0.0000000000000000e+00 -8.1999318552391163e+00 +7.0612531448568990e-03 +0.0000000000000000e+00 +9.9997506904123556e-01
-8.2999999999999865e+00 +4.6170383147326390e+00 +0.0000000000000000e+00 -8.2999293316162621e+00 +7.1473642664860153e-03 +0.0000000000000000e+00 +9.9997445726580525e-01
-8.3999999999999861e+00 +4.6163192727526932e+00 +0.0000000000000000e+00 -8.3999267464451037e+00 +7.2334753211704978e-03 +0.0000000000000000e+00 +9.9997383807516571e-01
-8.4999999999999858e+00 +4.6155916196706785e+00 +0.0000000000000000e+00 -8.4999240989841223e+00 +7.3195863076580018e-03 +0.0000000000000000e+00 +9.9997321146932949e-01
-8.5999999999999854e+00 +4.6148553554934724e+00 +0.0000000000000000e+00 -8.5999213884917971e+00 +7.4056972248278648e-03 +0.0000000000000000e+00 +9.9997257744830870e-01
-8.6999999999999851e+00 +4.6141104802280566e+00 +0.0000000000000000e+00 -8.6999186142266112e+00 +7.4918080716909179e-03 +0.0000000000000000e+00 +9.9997193601211454e-01
-8.7999999999999847e+00 +4.6133569938815064e+00 +0.0000000000000000e+00 -8.7999157754470474e+00 +7.5779188473892953e-03 +0.0000000000000000e+00 +9.9997128716075745e-01
-8.8999999999999844e+00 +4.6125948964609753e+00 +0.0000000000000000e+00 -8.8999128714115905e+00 +7.6640295511962320e-03 +0.0000000000000000e+00 +9.9997063089424687e-01
-8.9999999999999840e+00 +4.6118241879736832e+00 +0.0000000000000000e+00 -8.9999099013787252e+00 +7.7501401825158626e-03 +0.0000000000000000e+00 +9.9996996721259135e-01
-9.0999999999999837e+00 +4.6110448684269034e+00 +0.0000000000000000e+00 -9.0999068646069379e+00 +7.8362507408830107e-03 +0.0000000000000000e+00 +9.9996929611579854e-01
-9.1999999999999833e+00 +4.6102569378279492e+00 +0.0000000000000000e+00 -9.1999037603547151e+00 +7.9223612259629681e-03 +0.0000000000000000e+00 +9.9996861760387512e-01
-9.2999999999999829e+00 +4.6094603961841605e+00 +0.0000000000000000e+00 -9.2999005878805434e+00 +8.0084716375512770e-03 +0.0000000000000000e+00 +9.9996793167682640e-01
-9.3999999999999826e+00 +4.6086552435028914e+00 +0.0000000000000000e+00 -9.3998973464429110e+00 +8.0945819755735022e-03 +0.0000000000000000e+00 +9.9996723833465684e-01
-9.4999999999999822e+00 +4.6078414797914968e+00 +0.0000000000000000e+00 -9.4998940353003043e+00 +8.1806922400849934e-03 +0.0000000000000000e+00 +9.9996653757736953e-01
-9.5999999999999819e+00 +4.6070191050573195e+00 +0.0000000000000000e+00 -9.5998906537112134e+00 +8.2668024312706496e-03 +0.0000000000000000e+00 +9.9996582940496626e-01
-9.6999999999999815e+00 +4.6061881193076770e+00 +0.0000000000000000e+00 -9.6998872009341266e+00 +8.3529125494446691e-03 +0.0000000000000000e+00 +9.9996511381744768e-01
-9.7999999999999812e+00 +4.6053485225498498e+00 +0.0000000000000000e+00 -9.7998836762275321e+00 +8.4390225950503033e-03 +0.0000000000000000e+00 +9.9996439081481292e-01
-9.8999999999999808e+00 +4.6045003147910668e+00 +0.0000000000000000e+00 -9.8998800788499182e+00 +8.5251325686595929e-03 +0.0000000000000000e+00 +9.9996366039705986e-01
-9.9999999999999805e+00 +4.6036434960384947e+00 +0.0000000000000000e+00 -9.9998764080597731e+00 +8.6112424709731111e-03 +0.0000000000000000e+00 +9.9996292256418473e-01
-1.0099999999999980e+01 +4.6027780662992219e+00 +0.0000000000000000e+00 -1.0099872663115583e+01 +8.6973523028115035e-03 +0.0000000000000000e+00 +9.9996217731618253e-01
-1.0199999999999980e+01 +4.6019040255802537e+00 +0.0000000000000000e+00 -1.0199868843275837e+01 +8.7834620650248923e-03 +0.0000000000000000e+00 +9.9996142465304727e-01
-1.0299999999999979e+01 +4.6010213738885115e+00 +0.0000000000000000e+00 -1.0299864947799021e+01 +8.8695717584023250e-03 +0.0000000000000000e+00 +9.9996066457477328e-01
-1.0399999999999979e+01 +4.6001301112308433e+00 +0.0000000000000000e+00 -1.0399860975943620e+01 +8.9556813836637501e-03 +0.0000000000000000e+00 +9.9995989708135491e-01
-1.0499999999999979e+01 +4.5992302376140275e+00 +0.0000000000000000e+00 -1.0499856926968119e+01 +9.0417909414602805e-03 +0.0000000000000000e+00 +9.9995912217278693e-01
-1.0599999999999978e+01 +4.5983217530447806e+00 +0.0000000000000000e+00 -1.0599852800131005e+01 +9.1279004323744639e-03 +0.0000000000000000e+00 +9.9995833984906413e-01
-1.0699999999999978e+01 +4.5974046575297649e+00 +0.0000000000000000e+00 -1.0699848594690760e+01 +9.2140098569205593e-03 +0.0000000000000000e+00 +9.9995755011018161e-01
-1.0799999999999978e+01 +4.5964789510755937e+00 +0.0000000000000000e+00 -1.0799844309905868e+01 +9.3001192155448172e-03 +0.0000000000000000e+00 +9.9995675295613484e-01
-1.0899999999999977e+01 +4.5955446336888404e+00 +0.0000000000000000e+00 -1.0899839945034815e+01 +9.3862285086257751e-03 +0.0000000000000000e+00 +9.9995594838691959e-01
-1.0999999999999977e+01 +4.5946017053760428e+00 +0.0000000000000000e+00 -1.0999835499336081e+01 +9.4723377364745506e-03 +0.0000000000000000e+00 +9.9995513640253186e-01
-1.1099999999999977e+01 +4.5936501661437115e+00 +0.0000000000000000e+00 -1.1099830972068149e+01 +9.5584468993351497e-03 +0.0000000000000000e+00 +9.9995431700296811e-01
-1.1199999999999976e+01 +4.5926900159983362e+00 +0.0000000000000000e+00 -1.1199826362489501e+01 +9.6445559973847763e-03 +0.0000000000000000e+00 +9.9995349018822532e-01
-1.1299999999999976e+01 +4.5917212549463917e+00 +0.0000000000000000e+00 -1.1299821669858622e+01 +9.7306650307341491e-03 +0.0000000000000000e+00 +9.9995265595830063e-01
-1.1399999999999975e+01 +4.5907438829943450e+00 +0.0000000000000000e+00 -1.1399816893433989e+01 +9.8167739994278348e-03 +0.0000000000000000e+00 +9.9995181431319180e-01
-1.1499999999999975e+01 +4.5897579001486619e+00 +0.0000000000000000e+00 -1.1499812032474088e+01 +9.9028829034445709e-03 +0.0000000000000000e+00 +9.9995096525289706e-01
-1.1599999999999975e+01 +4.5887633064158146e+00 +0.0000000000000000e+00 -1.1599807086237396e+01 +9.9889917426976126e-03 +0.0000000000000000e+00 +9.9995010877741508e-01
-1.1699999999999974e+01 +4.5877601018022860e+00 +0.0000000000000000e+00 -1.1699802053982397e+01 +1.0075100517035080e-02 +0.0000000000000000e+00 +9.9994924488674508e-01
