# trajectory
# s[mm] rx[mm] ry[mm] rz[mm] px[rad] py[rad] pz[rad]
0.0000000000000000e+00 +4.6467000000000001e+00 +0.0000000000000000e+00 +0.0000000000000000e+00 +0.0000000000000000e+00 +0.0000000000000000e+00 +1.0000000000000000e+00
-1.0000000000000001e-01 +4.6466948001928348e+00 +0.0000000000000000e+00 -9.9999999819746707e-02 +1.0399614075354461e-04 +0.0000000000000000e+00 +9.9999999459240130e-01
-2.0000000000000001e-01 +4.6466792007724242e+00 +0.0000000000000000e+00 -1.9999999855797379e-01 +2.0799226426132961e-04 +0.0000000000000000e+00 +9.9999997836960874e-01
-3.0000000000000004e-01 +4.6466532017406799e+00 +0.0000000000000000e+00 -2.9999999513316217e-01 +3.1198836683570571e-04 +0.0000000000000000e+00 +9.9999995133162822e-01
-4.0000000000000002e-01 +4.6466168030998718e+00 +0.0000000000000000e+00 -3.9999998846379342e-01 +4.1598444498004066e-04 +0.0000000000000000e+00 +9.9999991347846695e-01
-5.0000000000000000e-01 +4.6465700048526086e+00 +0.0000000000000000e+00 -4.9999997746834984e-01 +5.1998049538869227e-04 +0.0000000000000000e+00 +9.9999986481013303e-01
-5.9999999999999998e-01 +4.6465128070018222e+00 +0.0000000000000000e+00 -5.9999996106531461e-01 +6.2397651494698755e-04 +0.0000000000000000e+00 +9.9999980532663546e-01
-6.9999999999999996e-01 +4.6464452095507456e+00 +0.0000000000000000e+00 -6.9999993817317185e-01 +7.2797250073120847e-04 +0.0000000000000000e+00 +9.9999973502798400e-01
-7.9999999999999993e-01 +4.6463672125028932e+00 +0.0000000000000000e+00 -7.9999990771040663e-01 +8.3196845000858420e-04 +0.0000000000000000e+00 +9.9999965391418921e-01
-8.9999999999999991e-01 +4.6462788158620452e+00 +0.0000000000000000e+00 -8.9999986859550529e-01 +9.3596436023728972e-04 +0.0000000000000000e+00 +9.9999956198526230e-01
-9.9999999999999989e-01 +4.6461800196322258e+00 +0.0000000000000000e+00 -9.9999981974695507e-01 +1.0399602290664508e-03 +0.0000000000000000e+00 +9.9999945924121481e-01
-1.0999999999999999e+00 +4.6460708238176842e+00 +0.0000000000000000e+00 -1.0999997600832445e+00 +1.1439560543361560e-03 +0.0000000000000000e+00 +9.9999934568205884e-01
-1.2000000000000000e+00 +4.6459512284228763e+00 +0.0000000000000000e+00 -1.1999996885228637e+00 +1.2479518340774739e-03 +0.0000000000000000e+00 +9.9999922130780672e-01
-1.3000000000000000e+00 +4.6458212334524456e+00 +0.0000000000000000e+00 -1.2999996039843031e+00 +1.3519475665124785e-03 +0.0000000000000000e+00 +9.9999908611847110e-01
-1.4000000000000001e+00 +4.6456808389112041e+00 +0.0000000000000000e+00 -1.3999995053860554e+00 +1.4559432500542791e-03 +0.0000000000000000e+00 +9.9999894011406465e-01
-1.5000000000000002e+00 +4.6455300448041115e+00 +0.0000000000000000e+00 -1.4999993916466141e+00 +1.5599388833070587e-03 +0.0000000000000000e+00 +9.9999878329460001e-01
-1.6000000000000003e+00 +4.6453688511362596e+00 +0.0000000000000000e+00 -1.5999992616844738e+00 +1.6639344650661171e-03 +0.0000000000000000e+00 +9.9999861566008985e-01
-1.7000000000000004e+00 +4.6451972579128489e+00 +0.0000000000000000e+00 -1.6999991144181308e+00 +1.7679299943179213e-03 +0.0000000000000000e+00 +9.9999843721054649e-01
-1.8000000000000005e+00 +4.6450152651391736e+00 +0.0000000000000000e+00 -1.7999989487660824e+00 +1.8719254702401619e-03 +0.0000000000000000e+00 +9.9999824794598213e-01
-1.9000000000000006e+00 +4.6448228728205994e+00 +0.0000000000000000e+00 -1.8999987636468270e+00 +1.9759208922018167e-03 +0.0000000000000000e+00 +9.9999804786640856e-01
-2.0000000000000004e+00 +4.6446200809625466e+00 +0.0000000000000000e+00 -1.9999985579788642e+00 +2.0799162597632194e-03 +0.0000000000000000e+00 +9.9999783697183697e-01
-2.1000000000000005e+00 +4.6444068895704689e+00 +0.0000000000000000e+00 -2.0999983306806946e+00 +2.1839115726723594e-03 +0.0000000000000000e+00 +9.9999761526227804e-01
-2.2000000000000006e+00 +4.6441832986498373e+00 +0.0000000000000000e+00 -2.1999980806708206e+00 +2.2879068308234072e-03 +0.0000000000000000e+00 +9.9999738273774186e-01
-2.3000000000000007e+00 +4.6439493082061292e+00 +0.0000000000000000e+00 -2.2999978068677445e+00 +2.3919020342152131e-03 +0.0000000000000000e+00 +9.9999713939823798e-01
-2.4000000000000008e+00 +4.6437049182448158e+00 +0.0000000000000000e+00 -2.3999975081899696e+00 +2.4958971829475551e-03 +0.0000000000000000e+00 +9.9999688524377539e-01
-2.5000000000000009e+00 +4.6434501287713550e+00 +0.0000000000000000e+00 -2.4999971835560011e+00 +2.5998922772211639e-03 +0.0000000000000000e+00 +9.9999662027436231e-01
-2.6000000000000010e+00 +4.6431849397911771e+00 +0.0000000000000000e+00 -2.5999968318843441e+00 +2.7038873173377475e-03 +0.0000000000000000e+00 +9.9999634449000641e-01
-2.7000000000000011e+00 +4.6429093513096795e+00 +0.0000000000000000e+00 -2.6999964520935045e+00 +2.8078823037000142e-03 +0.0000000000000000e+00 +9.9999605789071433e-01
-2.8000000000000012e+00 +4.6426233633322127e+00 +0.0000000000000000e+00 -2.7999960431019892e+00 +2.9118772368116946e-03 +0.0000000000000000e+00 +9.9999576047649230e-01
-2.9000000000000012e+00 +4.6423269758640719e+00 +0.0000000000000000e+00 -2.8999956038283057e+00 +3.0158721172775641e-03 +0.0000000000000000e+00 +9.9999545224734532e-01
-3.0000000000000013e+00 +4.6420201889104886e+00 +0.0000000000000000e+00 -2.9999951331909611e+00 +3.1198669458034618e-03 +0.0000000000000000e+00 +9.9999513320327760e-01
-3.1000000000000014e+00 +4.6417030024766159e+00 +0.0000000000000000e+00 -3.0999946301084638e+00 +3.2238617231963112e-03 +0.0000000000000000e+00 +9.9999480334429247e-01
-3.2000000000000015e+00 +4.6413754165675236e+00 +0.0000000000000000e+00 -3.1999940934993223e+00 +3.3278564503641380e-03 +0.0000000000000000e+00 +9.9999446267039216e-01
-3.3000000000000016e+00 +4.6410374311881837e+00 +0.0000000000000000e+00 -3.2999935222820449e+00 +3.4318511283160892e-03 +0.0000000000000000e+00 +9.9999411118157777e-01
-3.4000000000000017e+00 +4.6406890463434634e+00 +0.0000000000000000e+00 -3.3999929153751407e+00 +3.5358457581624483e-03 +0.0000000000000000e+00 +9.9999374887784931e-01
-3.5000000000000018e+00 +4.6403302620381144e+00 +0.0000000000000000e+00 -3.4999922716971179e+00 +3.6398403411146531e-03 +0.0000000000000000e+00 +9.9999337575920566e-01
-3.6000000000000019e+00 +4.6399610782767606e+00 +0.0000000000000000e+00 -3.5999915901664847e+00 +3.7438348784853094e-03 +0.0000000000000000e+00 +9.9999299182564438e-01
-3.7000000000000020e+00 +4.6395814950638901e+00 +0.0000000000000000e+00 -3.6999908697017494e+00 +3.8478293716882059e-03 +0.0000000000000000e+00 +9.9999259707716193e-01
-3.8000000000000020e+00 +4.6391915124038450e+00 +0.0000000000000000e+00 -3.7999901092214197e+00 +3.9518238222383270e-03 +0.0000000000000000e+00 +9.9999219151375318e-01
-3.9000000000000021e+00 +4.6387911303008105e+00 +0.0000000000000000e+00 -3.8999893076440024e+00 +4.0558182317518652e-03 +0.0000000000000000e+00 +9.9999177513541171e-01
-4.0000000000000018e+00 +4.6383803487588056e+00 +0.0000000000000000e+00 -3.9999884638880041e+00 +4.1598126019462322e-03 +0.0000000000000000e+00 +9.9999134794212974e-01
-4.1000000000000014e+00 +4.6379591677816716e+00 +0.0000000000000000e+00 -4.0999875768719303e+00 +4.2638069346234196e-03 +0.0000000000000000e+00 +9.9999090993389794e-01
-4.2000000000000011e+00 +4.6375275873730741e+00 +0.0000000000000000e+00 -4.1999866455142856e+00 +4.3678012314867570e-03 +0.0000000000000000e+00 +9.9999046111070633e-01
-4.3000000000000007e+00 +4.6370856075365205e+00 +0.0000000000000000e+00 -4.2999856687335729e+00 +4.4717954939575803e-03 +0.0000000000000000e+00 +9.9999000147254524e-01
-4.4000000000000004e+00 +4.6366332282753913e+00 +0.0000000000000000e+00 -4.3999846454482956e+00 +4.5757897231584717e-03 +0.0000000000000000e+00 +9.9998953101940535e-01
-4.5000000000000000e+00 +4.6361704495929699e+00 +0.0000000000000000e+00 -4.4999835745769543e+00 +4.6797839199131672e-03 +0.0000000000000000e+00 +9.9998904975127789e-01
-4.5999999999999996e+00 +4.6356972714924725e+00 +0.0000000000000000e+00 -4.5999824550380506e+00 +4.7837780847464545e-03 +0.0000000000000000e+00 +9.9998855766815486e-01
-4.6999999999999993e+00 +4.6352136939770769e+00 +0.0000000000000000e+00 -4.6999812857500851e+00 +4.8877722178840618e-03 +0.0000000000000000e+00 +9.9998805477002917e-01
-4.7999999999999989e+00 +4.6347197170499541e+00 +0.0000000000000000e+00 -4.7999800656315568e+00 +4.9917663192525453e-03 +0.0000000000000000e+00 +9.9998754105689469e-01
-4.8999999999999986e+00 +4.6342153407142970e+00 +0.0000000000000000e+00 -4.8999787936009636e+00 +5.0957603884791685e-03 +0.0000000000000000e+00 +9.9998701652874666e-01
-4.9999999999999982e+00 +4.6337005649733509e+00 +0.0000000000000000e+00 -4.9999774685768053e+00 +5.1997544248917737e-03 +0.0000000000000000e+00 +9.9998648118558153e-01
-5.0999999999999979e+00 +4.6331753898304440e+00 +0.0000000000000000e+00 -5.0999760894775790e+00 +5.3037484275186494e-03 +0.0000000000000000e+00 +9.9998593502739741e-01
-5.1999999999999975e+00 +4.6326398152890151e+00 +0.0000000000000000e+00 -5.1999746552217836e+00 +5.4077423950883892e-03 +0.0000000000000000e+00 +9.9998537805419385e-01
-5.2999999999999972e+00 +4.6320938413526465e+00 +0.0000000000000000e+00 -5.2999731647279171e+00 +5.5117363260297472e-03 +0.0000000000000000e+00 +9.9998481026597252e-01
-5.3999999999999968e+00 +4.6315374680250923e+00 +0.0000000000000000e+00 -5.3999716169144776e+00 +5.6157302184714850e-03 +0.0000000000000000e+00 +9.9998423166273687e-01
-5.4999999999999964e+00 +4.6309706953103076e+00 +0.0000000000000000e+00 -5.4999700106999638e+00 +5.7197240702422138e-03 +0.0000000000000000e+00 +9.9998364224449243e-01
-5.5999999999999961e+00 +4.6303935232124811e+00 +0.0000000000000000e+00 -5.5999683450028757e+00 +5.8237178788702300e-03 +0.0000000000000000e+00 +9.9998304201124733e-01
-5.6999999999999957e+00 +4.6298059517360635e+00 +0.0000000000000000e+00 -5.6999666187417137e+00 +5.9277116415833433e-03 +0.0000000000000000e+00 +9.9998243096301198e-01
-5.7999999999999954e+00 +4.6292079808857967e+00 +0.0000000000000000e+00 -5.7999648308349787e+00 +6.0317053553087027e-03 +0.0000000000000000e+00 +9.9998180909979939e-01
-5.8999999999999950e+00 +4.6285996106667460e+00 +0.0000000000000000e+00 -5.8999629802011748e+00 +6.1356990166726109e-03 +0.0000000000000000e+00 +9.9998117642162532e-01
-5.9999999999999947e+00 +4.6279808410843293e+00 +0.0000000000000000e+00 -5.9999610657588063e+00 +6.2396926220003373e-03 +0.0000000000000000e+00 +9.9998053292850853e-01
-6.0999999999999943e+00 +4.6273516721443455e+00 +0.0000000000000000e+00 -6.0999590864263791e+00 +6.3436861673272045e-03 +0.0000000000000000e+00 +9.9997987862047077e-01
-6.1999999999999940e+00 +4.6267121038530012e+00 +0.0000000000000000e+00 -6.1999570411224036e+00 +6.4476796485226744e-03 +0.0000000000000000e+00 +9.9997921349753616e-01
-6.2999999999999936e+00 +4.6260621362169179e+00 +0.0000000000000000e+00 -6.2999549287653904e+00 +6.5516730614147284e-03 +0.0000000000000000e+00 +9.9997853755973043e-01
-6.3999999999999932e+00 +4.6254017692431351e+00 +0.0000000000000000e+00 -6.3999527482738543e+00 +6.6556664018013207e-03 +0.0000000000000000e+00 +9.9997785080708101e-01
-6.4999999999999929e+00 +4.6247310029391153e+00 +0.0000000000000000e+00 -6.4999504985663128e+00 +6.7596596654505318e-03 +0.0000000000000000e+00 +9.9997715323961678e-01
-6.5999999999999925e+00 +4.6240498373127448e+00 +0.0000000000000000e+00 -6.5999481785612852e+00 +6.8636528481007273e-03 +0.0000000000000000e+00 +9.9997644485736836e-01
-6.6999999999999922e+00 +4.6233582723723377e+00 +0.0000000000000000e+00 -6.6999457871772945e+00 +6.9676459454607233e-03 +0.0000000000000000e+00 +9.9997572566036796e-01
-6.7999999999999918e+00 +4.6226563081266390e+00 +0.0000000000000000e+00 -6.7999433233328679e+00 +7.0716389532099648e-03 +0.0000000000000000e+00 +9.9997499564864933e-01
-6.8999999999999915e+00 +4.6219439445848272e+00 +0.0000000000000000e+00 -6.8999407859465354e+00 +7.1756318669987072e-03 +0.0000000000000000e+00 +9.9997425482224800e-01
-6.9999999999999911e+00 +4.6212211817565167e+00 +0.0000000000000000e+00 -6.9999381739368296e+00 +7.2796246824482066e-03 +0.0000000000000000e+00 +9.9997350318120104e-01
-7.0999999999999908e+00 +4.6204880196517619e+00 +0.0000000000000000e+00 -7.0999354862222885e+00 +7.3836173951509201e-03 +0.0000000000000000e+00 +9.9997274072554743e-01
-7.1999999999999904e+00 +4.6197444582810592e+00 +0.0000000000000000e+00 -7.1999327217214537e+00 +7.4876100006707113e-03 +0.0000000000000000e+00 +9.9997196745532757e-01
-7.2999999999999901e+00 +4.6189904976553491e+00 +0.0000000000000000e+00 -7.2999298793528702e+00 +7.5916024945430656e-03 +0.0000000000000000e+00 +9.9997118337058377e-01
-7.3999999999999897e+00 +4.6182261377860216e+00 +0.0000000000000000e+00 -7.3999269580350875e+00 +7.6955948722753137e-03 +0.0000000000000000e+00 +9.9997038847135999e-01
-7.4999999999999893e+00 +4.6174513786849163e+00 +0.0000000000000000e+00 -7.4999239566866605e+00 +7.7995871293468598e-03 +0.0000000000000000e+00 +9.9996958275770198e-01
-7.5999999999999890e+00 +4.6166662203643263e+00 +0.0000000000000000e+00 -7.5999208742261484e+00 +7.9035792612094230e-03 +0.0000000000000000e+00 +9.9996876622965714e-01
-7.6999999999999886e+00 +4.6158706628370005e+00 +0.0000000000000000e+00 -7.6999177095721141e+00 +8.0075712632872824e-03 +0.0000000000000000e+00 +9.9996793888727464e-01
-7.7999999999999883e+00 +4.6150647061161481e+00 +0.0000000000000000e+00 -7.7999144616431266e+00 +8.1115631309775296e-03 +0.0000000000000000e+00 +9.9996710073060557e-01
-7.8999999999999879e+00 +4.6142483502154388e+00 +0.0000000000000000e+00 -7.8999111293577604e+00 +8.2155548596503352e-03 +0.0000000000000000e+00 +9.9996625175970266e-01
-7.9999999999999876e+00 +4.6134215951490072e+00 +0.0000000000000000e+00 -7.9999077116345942e+00 +8.3195464446492156e-03 +0.0000000000000000e+00 +9.9996539197462042e-01
-8.0999999999999872e+00 +4.6125844409314540e+00 +0.0000000000000000e+00 -8.0999042073922141e+00 +8.4235378813089096e-03 +0.0000000000000000e+00 +9.9996452137541514e-01
-8.1999999999999869e+00 +4.6117368875778402e+00 +0.0000000000000000e+00 -8.1999006155492093e+00 +8.5275291651496794e-03 +0.0000000000000000e+00 +9.9996363996214299e-01
-8.2999999999999865e+00 +4.6108789351036554e+00 +0.0000000000000000e+00 -8.2998969350241758e+00 +8.6315202920716951e-03 +0.0000000000000000e+00 +9.9996274773485860e-01
-8.3999999999999861e+00 +4.6100105835247804e+00 +0.0000000000000000e+00 -8.3998931647357153e+00 +8.7355112583725001e-03 +0.0000000000000000e+00 +9.9996184469361415e-01
-8.4999999999999858e+00 +4.6091318328574458e+00 +0.0000000000000000e+00 -8.4998893036024352e+00 +8.8395020607467227e-03 +0.0000000000000000e+00 +9.9996093083845972e-01
-8.5999999999999854e+00 +4.6082426831181929e+00 +0.0000000000000000e+00 -8.5998853505429462e+00 +8.9434926962857850e-03 +0.0000000000000000e+00 +9.9996000616944292e-01
-8.6999999999999851e+00 +4.6073431343238340e+00 +0.0000000000000000e+00 -8.6998813044758645e+00 +9.0474831624775959e-03 +0.0000000000000000e+00 +9.9995907068660839e-01
-8.7999999999999847e+00 +4.6064331864914134e+00 +0.0000000000000000e+00 -8.7998771643198097e+00 +9.1514734572062367e-03 +0.0000000000000000e+00 +9.9995812438999809e-01
-8.8999999999999844e+00 +4.6055128396381662e+00 +0.0000000000000000e+00 -8.8998729289934069e+00 +9.2554635787516389e-03 +0.0000000000000000e+00 +9.9995716727965067e-01
-8.9999999999999840e+00 +4.6045820937814801e+00 +0.0000000000000000e+00 -8.9998685974152828e+00 +9.3594535257892440e-03 +0.0000000000000000e+00 +9.9995619935560154e-01
-9.0999999999999837e+00 +4.6036409489388568e+00 +0.0000000000000000e+00 -9.0998641685040713e+00 +9.4634432973896617e-03 +0.0000000000000000e+00 +9.9995522061788245e-01
-9.1999999999999833e+00 +4.6026894051278688e+00 +0.0000000000000000e+00 -9.1998596411784046e+00 +9.5674328930183163e-03 +0.0000000000000000e+00 +9.9995423106652159e-01
-9.2999999999999829e+00 +4.6017274623661244e+00 +0.0000000000000000e+00 -9.2998550143569219e+00 +9.6714223125350732e-03 +0.0000000000000000e+00 +9.9995323070154307e-01
-9.3999999999999826e+00 +4.6007551206712245e+00 +0.0000000000000000e+00 -9.3998502869582605e+00 +9.7754115561938717e-03 +0.0000000000000000e+00 +9.9995221952296698e-01
-9.4999999999999822e+00 +4.5997723800607266e+00 +0.0000000000000000e+00 -9.4998454579010616e+00 +9.8794006246423274e-03 +0.0000000000000000e+00 +9.9995119753080886e-01
-9.5999999999999819e+00 +4.5987792405521022e+00 +0.0000000000000000e+00 -9.5998405261039697e+00 +9.9833895189213456e-03 +0.0000000000000000e+00 +9.9995016472507992e-01
-9.6999999999999815e+00 +4.5977757021627008e+00 +0.0000000000000000e+00 -9.6998354904856257e+00 +1.0087378240464705e-02 +0.0000000000000000e+00 +9.9994912110578649e-01
-9.7999999999999812e+00 +4.5967617649097070e+00 +0.0000000000000000e+00 -9.7998303499646742e+00 +1.0191366791098642e-02 +0.0000000000000000e+00 +9.9994806667292990e-01
-9.8999999999999808e+00 +4.5957374288101045e+00 +0.0000000000000000e+00 -9.8998251034597597e+00 +1.0295355173041421e-02 +0.0000000000000000e+00 +9.9994700142650661e-01
-9.9999999999999805e+00 +4.5947026938806355e+00 +0.0000000000000000e+00 -9.9998197498895234e+00 +1.0399343388902894e-02 +0.0000000000000000e+00 +9.9994592536650739e-01
-1.0099999999999980e+01 +4.5936575601377614e+00 +0.0000000000000000e+00 -1.0099814288172608e+01 +1.0503331441662336e-02 +0.0000000000000000e+00 +9.9994483849291793e-01
-1.0199999999999980e+01 +4.5926020275976365e+00 +0.0000000000000000e+00 -1.0199808717227652e+01 +1.0607319334427982e-02 +0.0000000000000000e+00 +9.9994374080572079e-01
-1.0299999999999979e+01 +4.5915360962761094e+00 +0.0000000000000000e+00 -1.0299803035973296e+01 +1.0711307070196135e-02 +0.0000000000000000e+00 +9.9994263230489833e-01
-1.0399999999999979e+01 +4.5904597661887347e+00 +0.0000000000000000e+00 -1.0399797243328177e+01 +1.0815294651829592e-02 +0.0000000000000000e+00 +9.9994151299043244e-01
-1.0499999999999979e+01 +4.5893730373507893e+00 +0.0000000000000000e+00 -1.0499791338210928e+01 +1.0919282082058128e-02 +0.0000000000000000e+00 +9.9994038286230524e-01
-1.0599999999999978e+01 +4.5882759097772832e+00 +0.0000000000000000e+00 -1.0599785319540182e+01 +1.1023269363479001e-02 +0.0000000000000000e+00 +9.9993924192049854e-01
-1.0699999999999978e+01 +4.5871683834829717e+00 +0.0000000000000000e+00 -1.0699779186234570e+01 +1.1127256498557458e-02 +0.0000000000000000e+00 +9.9993809016499435e-01
-1.0799999999999978e+01 +4.5860504584823714e+00 +0.0000000000000000e+00 -1.0799772937212722e+01 +1.1231243489627269e-02 +0.0000000000000000e+00 +9.9993692759577479e-01
-1.0899999999999977e+01 +4.5849221347897728e+00 +0.0000000000000000e+00 -1.0899766571393267e+01 +1.1335230338891260e-02 +0.0000000000000000e+00 +9.9993575421282210e-01
-1.0999999999999977e+01 +4.5837834124192511e+00 +0.0000000000000000e+00 -1.0999760087694828e+01 +1.1439217048421872e-02 +0.0000000000000000e+00 +9.9993457001611874e-01
-1.1099999999999977e+01 +4.5826342913846814e+00 +0.0000000000000000e+00 -1.1099753485036031e+01 +1.1543203620161726e-02 +0.0000000000000000e+00 +9.9993337500564738e-01
-1.1199999999999976e+01 +4.5814747716997513e+00 +0.0000000000000000e+00 -1.1199746762335497e+01 +1.1647190055924199e-02 +0.0000000000000000e+00 +9.9993216918139116e-01
-1.1299999999999976e+01 +4.5803048533779727e+00 +0.0000000000000000e+00 -1.1299739918511849e+01 +1.1751176357394024e-02 +0.0000000000000000e+00 +9.9993095254333364e-01
-1.1399999999999975e+01 +4.5791245364326967e+00 +0.0000000000000000e+00 -1.1399732952483703e+01 +1.1855162526127897e-02 +0.0000000000000000e+00 +9.9992972509145872e-01
-1.1499999999999975e+01 +4.5779338208771243e+00 +0.0000000000000000e+00 -1.1499725863169679e+01 +1.1959148563555091e-02 +0.0000000000000000e+00 +9.9992848682575097e-01
-1.1599999999999975e+01 +4.5767327067243198e+00 +0.0000000000000000e+00 -1.1599718649488393e+01 +1.2063134470978098e-02 +0.0000000000000000e+00 +9.9992723774619541e-01
-1.1699999999999974e+01 +4.5755211939872229e+00 +0.0000000000000000e+00 -1.1699711310358458e+01 +1.2167120249573275e-02 +0.0000000000000000e+00 +9.9992597785277770e-01
