# field on trajectory
# s[mm] rx[mm] ry[mm] rz[mm] bx[T] by[T] bz[T]
0.0000000000000000e+00 +4.6467000000000001e+00 +0.0000000000000000e+00 +0.0000000000000000e+00 +2.8351017161132454e-02 -5.1977087830613777e-01 +3.7086495882320035e-03
-1.0000000000000001e-01 +4.6466956888035833e+00 +0.0000000000000000e+00 -9.9999999876090581e-02 +2.8351061550898463e-02 -5.1977089672110321e-01 +3.7086857017198395e-03
-2.0000000000000001e-01 +4.6466827552141794e+00 +0.0000000000000000e+00 -1.9999999900872453e-01 +2.8351113279243167e-02 -5.1977090894308620e-01 +3.7087215106104080e-03
-3.0000000000000004e-01 +4.6466611992316817e+00 +0.0000000000000000e+00 -2.9999999665444521e-01 +2.8351171277662429e-02 -5.1977091520675955e-01 +3.7087571732941750e-03
-4.0000000000000002e-01 +4.6466310208561454e+00 +0.0000000000000000e+00 -3.9999999206979603e-01 +2.8351234478037085e-02 -5.1977091574665490e-01 +3.7087928481094527e-03
-5.0000000000000000e-01 +4.6465922200877863e+00 +0.0000000000000000e+00 -4.9999998451132027e-01 +2.8351301812597492e-02 -5.1977091079717996e-01 +3.7088286933466114e-03
-5.9999999999999998e-01 +4.6465447969269746e+00 +0.0000000000000000e+00 -5.9999997323556142e-01 +2.8351372213887872e-02 -5.1977090059263464e-01 +3.7088648672522770e-03
-6.9999999999999996e-01 +4.6464887513742319e+00 +0.0000000000000000e+00 -6.9999995749906296e-01 +2.8351444614730891e-02 -5.1977088536722837e-01 +3.7089015280335549e-03
-7.9999999999999993e-01 +4.6464240834302268e+00 +0.0000000000000000e+00 -7.9999993655836854e-01 +2.8351517948192077e-02 -5.1977086535509598e-01 +3.7089388338622316e-03
-8.9999999999999991e-01 +4.6463507930957721e+00 +0.0000000000000000e+00 -8.9999990967002197e-01 +2.8351591147544240e-02 -5.1977084079031377e-01 +3.7089769428789898e-03
-9.9999999999999989e-01 +4.6462688803718191e+00 +0.0000000000000000e+00 -9.9999987609056729e-01 +2.8351663146231911e-02 -5.1977081190691787e-01 +3.7090160131976239e-03
-1.0999999999999999e+00 +4.6461783452594565e+00 +0.0000000000000000e+00 -1.0999998350765487e+00 +2.8351732877835722e-02 -5.1977077893891788e-01 +3.7090562029092515e-03
-1.2000000000000000e+00 +4.6460791877599030e+00 +0.0000000000000000e+00 -1.1999997858845108e+00 +2.8351799276036760e-02 -5.1977074212031582e-01 +3.7090976700865394e-03
-1.3000000000000000e+00 +4.6459714078745069e+00 +0.0000000000000000e+00 -1.2999997277709983e+00 +2.8351861274581006e-02 -5.1977070168512274e-01 +3.7091405727879270e-03
-1.4000000000000001e+00 +4.6458550056047399e+00 +0.0000000000000000e+00 -1.3999996599925559e+00 +2.8351917807243516e-02 -5.1977065786737209e-01 +3.7091850690618377e-03
-1.5000000000000002e+00 +4.6457299809521935e+00 +0.0000000000000000e+00 -1.4999995818057292e+00 +2.8351967807792811e-02 -5.1977061090114085e-01 +3.7092313169509294e-03
-1.6000000000000003e+00 +4.6455963339185766e+00 +0.0000000000000000e+00 -1.5999994924670640e+00 +2.8352010209955082e-02 -5.1977056102056163e-01 +3.7092794744963105e-03
-1.7000000000000004e+00 +4.6454540645057101e+00 +0.0000000000000000e+00 -1.6999993912331062e+00 +2.8352043947378457e-02 -5.1977050845984252e-01 +3.7093296997417935e-03
-1.8000000000000005e+00 +4.6453031727155230e+00 +0.0000000000000000e+00 -1.7999992773604023e+00 +2.8352067953597133e-02 -5.1977045345328199e-01 +3.7093821507381258e-03
-1.9000000000000006e+00 +4.6451436585500492e+00 +0.0000000000000000e+00 -1.8999991501054991e+00 +2.8352081161995561e-02 -5.1977039623528565e-01 +3.7094369855472475e-03
-2.0000000000000004e+00 +4.6449755220114231e+00 +0.0000000000000000e+00 -1.9999990087249437e+00 +2.8352082505772518e-02 -5.1977033704038289e-01 +3.7094943622465425e-03
-2.1000000000000005e+00 +4.6447987631018766e+00 +0.0000000000000000e+00 -2.0999988524752840e+00 +2.8352071255542143e-02 -5.1977027613365712e-01 +3.7095543865479446e-03
-2.2000000000000006e+00 +4.6446133818237341e+00 +0.0000000000000000e+00 -2.1999986806130676e+00 +2.8352048032225047e-02 -5.1977021390200184e-01 +3.7096169546470235e-03
-2.3000000000000007e+00 +4.6444193781794052e+00 +0.0000000000000000e+00 -2.2999984923948431e+00 +2.8352013794035617e-02 -5.1977015076287625e-01 +3.7096819103982596e-03
-2.4000000000000008e+00 +4.6442167521713795e+00 +0.0000000000000000e+00 -2.3999982870771595e+00 +2.8351969498775432e-02 -5.1977008713390216e-01 +3.7097490977113139e-03
-2.5000000000000009e+00 +4.6440055038022177e+00 +0.0000000000000000e+00 -2.4999980639165660e+00 +2.8351916103789298e-02 -5.1977002343287604e-01 +3.7098183605575232e-03
-2.6000000000000010e+00 +4.6437856330745468e+00 +0.0000000000000000e+00 -2.5999978221696121e+00 +2.8351854565921469e-02 -5.1976996007778420e-01 +3.7098895429763753e-03
-2.7000000000000011e+00 +4.6435571399910520e+00 +0.0000000000000000e+00 -2.6999975610928479e+00 +2.8351785841471744e-02 -5.1976989748681557e-01 +3.7099624890819726e-03
-2.8000000000000012e+00 +4.6433200245544697e+00 +0.0000000000000000e+00 -2.7999972799428243e+00 +2.8351710886151800e-02 -5.1976983607837579e-01 +3.7100370430695031e-03
-2.9000000000000012e+00 +4.6430742867675807e+00 +0.0000000000000000e+00 -2.8999969779760915e+00 +2.8351630655041565e-02 -5.1976977627110121e-01 +3.7101130492216889e-03
-3.0000000000000013e+00 +4.6428199266332033e+00 +0.0000000000000000e+00 -2.9999966544492009e+00 +2.8351546102545568e-02 -5.1976971848387143e-01 +3.7101903519152278e-03
-3.1000000000000014e+00 +4.6425569441541867e+00 +0.0000000000000000e+00 -3.0999963086187043e+00 +2.8351458182349496e-02 -5.1976966313582418e-01 +3.7102687956272326e-03
-3.2000000000000015e+00 +4.6422853393334043e+00 +0.0000000000000000e+00 -3.1999959397411533e+00 +2.8351367847376803e-02 -5.1976961064636729e-01 +3.7103482249416422e-03
-3.3000000000000016e+00 +4.6420051121737451e+00 +0.0000000000000000e+00 -3.2999955470731002e+00 +2.8351276049745393e-02 -5.1976956143519415e-01 +3.7104284845556512e-03
-3.4000000000000017e+00 +4.6417162626781074e+00 +0.0000000000000000e+00 -3.3999951298710971e+00 +2.8351183740724463e-02 -5.1976951592229592e-01 +3.7105094192860935e-03
-3.5000000000000018e+00 +4.6414187908493938e+00 +0.0000000000000000e+00 -3.4999946873916965e+00 +2.8351091870691358e-02 -5.1976947452797606e-01 +3.7105908740758353e-03
-3.6000000000000019e+00 +4.6411126966905023e+00 +0.0000000000000000e+00 -3.5999942188914513e+00 +2.8351001389088654e-02 -5.1976943767286254e-01 +3.7106726940001472e-03
-3.7000000000000020e+00 +4.6407979802043187e+00 +0.0000000000000000e+00 -3.6999937236269145e+00 +2.8350913244381298e-02 -5.1976940577792308e-01 +3.7107547242730657e-03
-3.8000000000000020e+00 +4.6404746413937117e+00 +0.0000000000000000e+00 -3.7999932008546384e+00 +2.8350828384013857e-02 -5.1976937926447686e-01 +3.7108368102537316e-03
-3.9000000000000021e+00 +4.6401426802615244e+00 +0.0000000000000000e+00 -3.8999926498311765e+00 +2.8350747754367946e-02 -5.1976935855420880e-01 +3.7109187974527242e-03
-4.0000000000000018e+00 +4.6398020968105680e+00 +0.0000000000000000e+00 -3.9999920698130818e+00 +2.8350672300719797e-02 -5.1976934406918407e-01 +3.7110005315383731e-03
-4.1000000000000014e+00 +4.6394528910436135e+00 +0.0000000000000000e+00 -4.0999914600569074e+00 +2.8350602786712781e-02 -5.1976933605010578e-01 +3.7110818607392210e-03
-4.2000000000000011e+00 +4.6390950629633920e+00 +0.0000000000000000e+00 -4.1999908198192060e+00 +2.8350539253372390e-02 -5.1976933401069203e-01 +3.7111626429608162e-03
-4.3000000000000007e+00 +4.6387286125725975e+00 +0.0000000000000000e+00 -4.2999901483565299e+00 +2.8350481561857977e-02 -5.1976933728266739e-01 +3.7112427384554721e-03
-4.4000000000000004e+00 +4.6383535398739015e+00 +0.0000000000000000e+00 -4.3999894449254322e+00 +2.8350429574278857e-02 -5.1976934519753049e-01 +3.7113220073975418e-03
-4.5000000000000000e+00 +4.6379698448699624e+00 +0.0000000000000000e+00 -4.4999887087824648e+00 +2.8350383153774590e-02 -5.1976935708653149e-01 +3.7114003098754080e-03
-4.5999999999999996e+00 +4.6375775275634368e+00 +0.0000000000000000e+00 -4.5999879391841816e+00 +2.8350342164594932e-02 -5.1976937228064934e-01 +3.7114775058834392e-03
-4.6999999999999993e+00 +4.6371765879569891e+00 +0.0000000000000000e+00 -4.6999871353871336e+00 +2.8350306472179853e-02 -5.1976939011056877e-01 +3.7115534553139790e-03
-4.7999999999999989e+00 +4.6367670260533060e+00 +0.0000000000000000e+00 -4.7999862966478739e+00 +2.8350275943239581e-02 -5.1976940990665643e-01 +3.7116280179493506e-03
-4.8999999999999986e+00 +4.6363488418551047e+00 +0.0000000000000000e+00 -4.8999854222229553e+00 +2.8350250445834377e-02 -5.1976943099894057e-01 +3.7117010534538568e-03
-4.9999999999999982e+00 +4.6359220353651454e+00 +0.0000000000000000e+00 -4.9999845113689307e+00 +2.8350229849454411e-02 -5.1976945271708552e-01 +3.7117724213658128e-03
-5.0999999999999979e+00 +4.6354866065862419e+00 +0.0000000000000000e+00 -5.0999835633423523e+00 +2.8350214025099497e-02 -5.1976947439037102e-01 +3.7118419810895694e-03
-5.1999999999999975e+00 +4.6350425555212729e+00 +0.0000000000000000e+00 -5.1999825773997728e+00 +2.8350202845358757e-02 -5.1976949534766781e-01 +3.7119095918875756e-03
-5.2999999999999972e+00 +4.6345898821731923e+00 +0.0000000000000000e+00 -5.2999815527977461e+00 +2.8350196184490174e-02 -5.1976951491741630e-01 +3.7119751128724321e-03
-5.3999999999999968e+00 +4.6341285865450423e+00 +0.0000000000000000e+00 -5.3999804887928260e+00 +2.8350193918500181e-02 -5.1976953242760282e-01 +3.7120384029989762e-03
-5.4999999999999964e+00 +4.6336586686399626e+00 +0.0000000000000000e+00 -5.4999793846415654e+00 +2.8350195925222987e-02 -5.1976954720573798e-01 +3.7120993210563746e-03
-5.5999999999999961e+00 +4.6331801284612029e+00 +0.0000000000000000e+00 -5.5999782396005191e+00 +2.8350202084399954e-02 -5.1976955857883356e-01 +3.7121577256602331e-03
-5.6999999999999957e+00 +4.6326929660121330e+00 +0.0000000000000000e+00 -5.6999770529262417e+00 +2.8350212277758864e-02 -5.1976956587337952e-01 +3.7122134752447240e-03
-5.7999999999999954e+00 +4.6321971812962550e+00 +0.0000000000000000e+00 -5.7999758238752888e+00 +2.8350226389093014e-02 -5.1976956841532262e-01 +3.7122664280547315e-03
-5.8999999999999950e+00 +4.6316927743172132e+00 +0.0000000000000000e+00 -5.8999745517042168e+00 +2.8350244304340251e-02 -5.1976956553004239e-01 +3.7123164421380083e-03
-5.9999999999999947e+00 +4.6311797450788070e+00 +0.0000000000000000e+00 -5.9999732356695823e+00 +2.8350265911661982e-02 -5.1976955654233004e-01 +3.7123633753373604e-03
-6.0999999999999943e+00 +4.6306580935849997e+00 +0.0000000000000000e+00 -6.0999718750279435e+00 +2.8350291012679673e-02 -5.1976954091607530e-01 +3.7124071689716050e-03
-6.1999999999999940e+00 +4.6301278198399292e+00 +0.0000000000000000e+00 -6.1999704690358586e+00 +2.8350319054797065e-02 -5.1976951867403498e-01 +3.7124480992514349e-03
-6.2999999999999936e+00 +4.6295889238479067e+00 +0.0000000000000000e+00 -6.2999690169498876e+00 +2.8350349396243504e-02 -5.1976948997884675e-01 +3.7124865262306798e-03
-6.3999999999999932e+00 +4.6290414056134139e+00 +0.0000000000000000e+00 -6.3999675180265907e+00 +2.8350381394791752e-02 -5.1976945499314986e-01 +3.7125228100074871e-03
-6.4999999999999929e+00 +4.6284852651411015e+00 +0.0000000000000000e+00 -6.4999659715225304e+00 +2.8350414407721305e-02 -5.1976941387958919e-01 +3.7125573107271268e-03
-6.5999999999999925e+00 +4.6279205024357859e+00 +0.0000000000000000e+00 -6.5999643766942695e+00 +2.8350447791781596e-02 -5.1976936680081920e-01 +3.7125903885848141e-03
-6.6999999999999922e+00 +4.6273471175024472e+00 +0.0000000000000000e+00 -6.6999627327983715e+00 +2.8350480903154944e-02 -5.1976931391950698e-01 +3.7126224038285128e-03
-6.7999999999999918e+00 +4.6267651103462244e+00 +0.0000000000000000e+00 -6.7999610390914018e+00 +2.8350513097419615e-02 -5.1976925539833640e-01 +3.7126537167617465e-03
-6.8999999999999915e+00 +4.6261744809724155e+00 +0.0000000000000000e+00 -6.8999592948299266e+00 +2.8350543729512477e-02 -5.1976919140001132e-01 +3.7126846877463962e-03
-6.9999999999999911e+00 +4.6255752293864729e+00 +0.0000000000000000e+00 -6.9999574992705131e+00 +2.8350572153691817e-02 -5.1976912208725956e-01 +3.7127156772055062e-03
-7.0999999999999908e+00 +4.6249673555940012e+00 +0.0000000000000000e+00 -7.0999556516697302e+00 +2.8350597723499828e-02 -5.1976904762283638e-01 +3.7127470456260725e-03
-7.1999999999999904e+00 +4.6243508596007548e+00 +0.0000000000000000e+00 -7.1999537512841476e+00 +2.8350619791725026e-02 -5.1976896816952822e-01 +3.7127791535618397e-03
-7.2999999999999901e+00 +4.6237257414126347e+00 +0.0000000000000000e+00 -7.2999517973703361e+00 +2.8350637710364585e-02 -5.1976888389015674e-01 +3.7128123616360907e-03
-7.3999999999999897e+00 +4.6230920010356868e+00 +0.0000000000000000e+00 -7.3999497891848680e+00 +2.8350650830586441e-02 -5.1976879494758255e-01 +3.7128470305444255e-03
-7.4999999999999893e+00 +4.6224496384760974e+00 +0.0000000000000000e+00 -7.4999477259843168e+00 +2.8350658502691334e-02 -5.1976870150470800e-01 +3.7128835210575458e-03
-7.5999999999999890e+00 +4.6217986537401918e+00 +0.0000000000000000e+00 -7.5999456070252576e+00 +2.8350660076074646e-02 -5.1976860372448186e-01 +3.7129221940240338e-03
-7.6999999999999886e+00 +4.6211390468344318e+00 +0.0000000000000000e+00 -7.6999434315642663e+00 +2.8350654899188164e-02 -5.1976850176990352e-01 +3.7129634103731167e-03
-7.7999999999999883e+00 +4.6204708177654119e+00 +0.0000000000000000e+00 -7.7999411988579208e+00 +2.8350642319501594e-02 -5.1976839580402490e-01 +3.7130075311174369e-03
-7.8999999999999879e+00 +4.6197939665398575e+00 +0.0000000000000000e+00 -7.8999389081627998e+00 +2.8350621683464038e-02 -5.1976828598995650e-01 +3.7130549173558197e-03
-7.9999999999999876e+00 +4.6191084931646227e+00 +0.0000000000000000e+00 -7.9999365587354827e+00 +2.8350592336465214e-02 -5.1976817249087026e-01 +3.7131059302760263e-03
-8.0999999999999872e+00 +4.6184143976466858e+00 +0.0000000000000000e+00 -8.0999341498325510e+00 +2.8350553858677578e-02 -5.1976805550284522e-01 +3.7131608124994662e-03
-8.1999999999999869e+00 +4.6177116799931479e+00 +0.0000000000000000e+00 -8.1999316807105878e+00 +2.8350506774388273e-02 -5.1976793535353316e-01 +3.7132193311994501e-03
-8.2999999999999865e+00 +4.6170003402112254e+00 +0.0000000000000000e+00 -8.2999291506261770e+00 +2.8350451843296817e-02 -5.1976781240329972e-01 +3.7132811345186811e-03
-8.3999999999999861e+00 +4.6162803783082458e+00 +0.0000000000000000e+00 -8.3999265588359044e+00 +2.8350389823677574e-02 -5.1976768701221865e-01 +3.7133458706804763e-03
-8.4999999999999858e+00 +4.6155517942916404e+00 +0.0000000000000000e+00 -8.4999239045963559e+00 +2.8350321472340553e-02 -5.1976755954006482e-01 +3.7134131879909163e-03
-8.5999999999999854e+00 +4.6148145881689411e+00 +0.0000000000000000e+00 -8.5999211871641208e+00 +2.8350247544592463e-02 -5.1976743034630601e-01 +3.7134827348409656e-03
-8.6999999999999851e+00 +4.6140687599477710e+00 +0.0000000000000000e+00 -8.6999184057957866e+00 +2.8350168794198109e-02 -5.1976729979009451e-01 +3.7135541597086291e-03
-8.7999999999999847e+00 +4.6133143096358395e+00 +0.0000000000000000e+00 -8.7999155597479444e+00 +2.8350085973342029e-02 -5.1976716823025915e-01 +3.7136271111610597e-03
-8.8999999999999844e+00 +4.6125512372409379e+00 +0.0000000000000000e+00 -8.8999126482771853e+00 +2.8349999832590528e-02 -5.1976703602529706e-01 +3.7137012378566886e-03
-8.9999999999999840e+00 +4.6117795427709316e+00 +0.0000000000000000e+00 -8.9999096706401023e+00 +2.8349911120853857e-02 -5.1976690353336463e-01 +3.7137761885473381e-03
-9.0999999999999837e+00 +4.6109992262337558e+00 +0.0000000000000000e+00 -9.0999066260932882e+00 +2.8349820585348958e-02 -5.1976677111227065e-01 +3.7138516120803315e-03
-9.1999999999999833e+00 +4.6102102876374067e+00 +0.0000000000000000e+00 -9.1999035138933376e+00 +2.8349728971562318e-02 -5.1976663911946630e-01 +3.7139271574005979e-03
-9.2999999999999829e+00 +4.6094127269899392e+00 +0.0000000000000000e+00 -9.2999003332968471e+00 +2.8349637023213296e-02 -5.1976650791203738e-01 +3.7140024735527592e-03
-9.3999999999999826e+00 +4.6086065442994588e+00 +0.0000000000000000e+00 -9.3998970835604148e+00 +2.8349545482217714e-02 -5.1976637784669577e-01 +3.7140772096832374e-03
-9.4999999999999822e+00 +4.6077917395741164e+00 +0.0000000000000000e+00 -9.4998937639406371e+00 +2.8349455088651818e-02 -5.1976624927977044e-01 +3.7141510150423183e-03
-9.5999999999999819e+00 +4.6069683128221017e+00 +0.0000000000000000e+00 -9.5998903736941124e+00 +2.8349366580716660e-02 -5.1976612256719890e-01 +3.7142235389862419e-03
-9.6999999999999815e+00 +4.6061362640516377e+00 +0.0000000000000000e+00 -9.6998869120774387e+00 +2.8349280694702727e-02 -5.1976599806451829e-01 +3.7142944309792657e-03
-9.7999999999999812e+00 +4.6052955932709745e+00 +0.0000000000000000e+00 -9.7998833783472179e+00 +2.8349198164955024e-02 -5.1976587612685654e-01 +3.7143633405957261e-03
-9.8999999999999808e+00 +4.6044463004883847e+00 +0.0000000000000000e+00 -9.8998797717600517e+00 +2.8349119723838512e-02 -5.1976575710892292e-01 +3.7144299175220961e-03
-9.9999999999999805e+00 +4.6035883857121567e+00 +0.0000000000000000e+00 -9.9998760915725402e+00 +2.8349046101703978e-02 -5.1976564136500014e-01 +3.7144938115590319e-03
-1.0099999999999980e+01 +4.6027218489505870e+00 +0.0000000000000000e+00 -1.0099872337041285e+01 +2.8348977887612647e-02 -5.1976552912028573e-01 +3.7145547582950558e-03
-1.0199999999999980e+01 +4.6018466902119810e+00 +0.0000000000000000e+00 -1.0199868507422890e+01 +2.8348915111077157e-02 -5.1976542008348403e-01 +3.7146128372438571e-03
-1.0299999999999979e+01 +4.6009629095046538e+00 +0.0000000000000000e+00 -1.0299864601973958e+01 +2.8348857663595996e-02 -5.1976531383452285e-01 +3.7146682139156534e-03
-1.0399999999999979e+01 +4.6000705068369392e+00 +0.0000000000000000e+00 -1.0399860619951092e+01 +2.8348805439398116e-02 -5.1976520995430486e-01 +3.7147210534581531e-03
-1.0499999999999979e+01 +4.5991694822171958e+00 +0.0000000000000000e+00 -1.0499856560610898e+01 +2.8348758335516620e-02 -5.1976510802473352e-01 +3.7147715206471070e-03
-1.0599999999999978e+01 +4.5982598356538134e+00 +0.0000000000000000e+00 -1.0599852423209979e+01 +2.8348716251862249e-02 -5.1976500762874200e-01 +3.7148197798768708e-03
-1.0699999999999978e+01 +4.5973415671552198e+00 +0.0000000000000000e+00 -1.0699848207004944e+01 +2.8348679091296812e-02 -5.1976490835031841e-01 +3.7148659951509433e-03
-1.0799999999999978e+01 +4.5964146767298901e+00 +0.0000000000000000e+00 -1.0799843911252397e+01 +2.8348646759706251e-02 -5.1976480977453532e-01 +3.7149103300725245e-03
-1.0899999999999977e+01 +4.5954791643863508e+00 +0.0000000000000000e+00 -1.0899839535208947e+01 +2.8348619166073712e-02 -5.1976471148757641e-01 +3.7149529478350549e-03
-1.0999999999999977e+01 +4.5945350301331871e+00 +0.0000000000000000e+00 -1.0999835078131204e+01 +2.8348596222552265e-02 -5.1976461307676436e-01 +3.7149940112127578e-03
-1.1099999999999977e+01 +4.5935822739790524e+00 +0.0000000000000000e+00 -1.1099830539275775e+01 +2.8348577844537533e-02 -5.1976451413058766e-01 +3.7150336825511740e-03
-1.1199999999999976e+01 +4.5926208959326704e+00 +0.0000000000000000e+00 -1.1199825917899272e+01 +2.8348563950740133e-02 -5.1976441423873010e-01 +3.7150721237576971e-03
-1.1299999999999976e+01 +4.5916508960028466e+00 +0.0000000000000000e+00 -1.1299821213258308e+01 +2.8348554463257843e-02 -5.1976431299209636e-01 +3.7151094962921019e-03
-1.1399999999999975e+01 +4.5906722741984725e+00 +0.0000000000000000e+00 -1.1399816424609496e+01 +2.8348549307647630e-02 -5.1976420998284167e-01 +3.7151459611570771e-03
-1.1499999999999975e+01 +4.5896850305285328e+00 +0.0000000000000000e+00 -1.1499811551209449e+01 +2.8348548412997443e-02 -5.1976410480439927e-01 +3.7151816788887405e-03
-1.1599999999999975e+01 +4.5886891650021120e+00 +0.0000000000000000e+00 -1.1599806592314785e+01 +2.8348551711997762e-02 -5.1976399705150800e-01 +3.7152168095471632e-03
-1.1699999999999974e+01 +4.5876846776284017e+00 +0.0000000000000000e+00 -1.1699801547182123e+01 +2.8348559141013082e-02 -5.1976388632024073e-01 +3.7152515127068871e-03
