# trajectory
# s[mm] rx[mm] ry[mm] rz[mm] px[rad] py[rad] pz[rad]
0.0000000000000000e+00 +4.6467000000000001e+00 +0.0000000000000000e+00 +0.0000000000000000e+00 +0.0000000000000000e+00 +0.0000000000000000e+00 +1.0000000000000000e+00
1.0000000000000001e-01 +4.6466956848234204e+00 +0.0000000000000000e+00 +9.9999999875861667e-02 -8.6303531662729741e-05 +0.0000000000000000e+00 +9.9999999627585023e-01
2.0000000000000001e-01 +4.6466827392936585e+00 +0.0000000000000000e+00 +1.9999999900689336e-01 -1.7260706358722335e-04 +0.0000000000000000e+00 +9.9999998510340071e-01
3.0000000000000004e-01 +4.6466611634107053e+00 +0.0000000000000000e+00 +2.9999999664826515e-01 -2.5891059542198060e-04 +0.0000000000000000e+00 +9.9999996648265121e-01
4.0000000000000002e-01 +4.6466309571745903e+00 +0.0000000000000000e+00 +3.9999999205514697e-01 -3.4521412676927384e-04 +0.0000000000000000e+00 +9.9999994041360152e-01
5.0000000000000000e-01 +4.6465921205853826e+00 +0.0000000000000000e+00 +4.9999998448270877e-01 -4.3151765718518753e-04 +0.0000000000000000e+00 +9.9999990689625140e-01
5.9999999999999998e-01 +4.6465446536432005e+00 +0.0000000000000000e+00 +5.9999997318612053e-01 -5.1782118617966003e-04 +0.0000000000000000e+00 +9.9999986593060053e-01
6.9999999999999996e-01 +4.6464885563482117e+00 +0.0000000000000000e+00 +6.9999995742055221e-01 -6.0412471321652712e-04 +0.0000000000000000e+00 +9.9999981751664868e-01
7.9999999999999993e-01 +4.6464238287006419e+00 +0.0000000000000000e+00 +7.9999993644117362e-01 -6.9042823771356767e-04 +0.0000000000000000e+00 +9.9999976165439575e-01
8.9999999999999991e-01 +4.6463504707007752e+00 +0.0000000000000000e+00 +8.9999990950315467e-01 -7.7673175904255137e-04 +0.0000000000000000e+00 +9.9999969834384161e-01
9.9999999999999989e-01 +4.6462684823489617e+00 +0.0000000000000000e+00 +9.9999987586166528e-01 -8.6303527652928814e-04 +0.0000000000000000e+00 +9.9999962758498628e-01
1.0999999999999999e+00 +4.6461778636456215e+00 +0.0000000000000000e+00 +1.0999998347718754e+00 -9.4933878945367971e-04 +0.0000000000000000e+00 +9.9999954937782976e-01
1.2000000000000000e+00 +4.6460786145912483e+00 +0.0000000000000000e+00 +1.1999997854889546e+00 -1.0356422970497733e-03 +0.0000000000000000e+00 +9.9999946372237236e-01
1.3000000000000000e+00 +4.6459707351864159e+00 +0.0000000000000000e+00 +1.2999997272680730e+00 -1.1219457985058167e-03 +0.0000000000000000e+00 +9.9999937061861444e-01
1.4000000000000001e+00 +4.6458542254317807e+00 +0.0000000000000000e+00 +1.3999996593644006e+00 -1.2082492929643162e-03 +0.0000000000000000e+00 +9.9999927006655653e-01
1.5000000000000002e+00 +4.6457290853280870e+00 +0.0000000000000000e+00 +1.4999995810331075e+00 -1.2945527795220962e-03 +0.0000000000000000e+00 +9.9999916206619932e-01
1.6000000000000003e+00 +4.6455953148761715e+00 +0.0000000000000000e+00 +1.5999994915293638e+00 -1.3808562572303602e-03 +0.0000000000000000e+00 +9.9999904661754380e-01
1.7000000000000004e+00 +4.6454529140769694e+00 +0.0000000000000000e+00 +1.6999993901083397e+00 -1.4671597250947544e-03 +0.0000000000000000e+00 +9.9999892372059118e-01
1.8000000000000005e+00 +4.6453018829315154e+00 +0.0000000000000000e+00 +1.7999992760252055e+00 -1.5534631820754328e-03 +0.0000000000000000e+00 +9.9999879337534281e-01
1.9000000000000006e+00 +4.6451422214409526e+00 +0.0000000000000000e+00 +1.8999991485351317e+00 -1.6397666270871250e-03 +0.0000000000000000e+00 +9.9999865558180046e-01
2.0000000000000004e+00 +4.6449739296065342e+00 +0.0000000000000000e+00 +1.9999990068932891e+00 -1.7260700589992052e-03 +0.0000000000000000e+00 +9.9999851033996601e-01
2.1000000000000005e+00 +4.6447970074296281e+00 +0.0000000000000000e+00 +2.0999988503548486e+00 -1.8123734766368662e-03 +0.0000000000000000e+00 +9.9999835764984180e-01
2.2000000000000006e+00 +4.6446114549117228e+00 +0.0000000000000000e+00 +2.1999986781749814e+00 -1.8986768787933150e-03 +0.0000000000000000e+00 +9.9999819751143038e-01
2.3000000000000007e+00 +4.6444172720544268e+00 +0.0000000000000000e+00 +2.2999984896088588e+00 -1.9849802642419104e-03 +0.0000000000000000e+00 +9.9999802992473452e-01
2.4000000000000008e+00 +4.6442144588594729e+00 +0.0000000000000000e+00 +2.3999982839116525e+00 -2.0712836317372313e-03 +0.0000000000000000e+00 +9.9999785488975756e-01
2.5000000000000009e+00 +4.6440030153287202e+00 +0.0000000000000000e+00 +2.4999980603385343e+00 -2.1575869800150287e-03 +0.0000000000000000e+00 +9.9999767240650284e-01
2.6000000000000010e+00 +4.6437829414641536e+00 +0.0000000000000000e+00 +2.5999978181446770e+00 -2.2438903077921690e-03 +0.0000000000000000e+00 +9.9999748247497422e-01
2.7000000000000011e+00 +4.6435542372678889e+00 +0.0000000000000000e+00 +2.6999975565852532e+00 -2.3301936137665675e-03 +0.0000000000000000e+00 +9.9999728509517571e-01
2.8000000000000012e+00 +4.6433169027421712e+00 +0.0000000000000000e+00 +2.7999972749154365e+00 -2.4164968966171093e-03 +0.0000000000000000e+00 +9.9999708026711176e-01
2.9000000000000012e+00 +4.6430709378893811e+00 +0.0000000000000000e+00 +2.8999969723904004e+00 -2.5028001550035637e-03 +0.0000000000000000e+00 +9.9999686799078713e-01
3.0000000000000013e+00 +4.6428163427120319e+00 +0.0000000000000000e+00 +2.9999966482653191e+00 -2.5891033875664860e-03 +0.0000000000000000e+00 +9.9999664826620704e-01
3.1000000000000014e+00 +4.6425531172127750e+00 +0.0000000000000000e+00 +3.0999963017953669e+00 -2.6754065929271097e-03 +0.0000000000000000e+00 +9.9999642109337683e-01
3.2000000000000015e+00 +4.6422812613944000e+00 +0.0000000000000000e+00 +3.1999959322357197e+00 -2.7617097696872295e-03 +0.0000000000000000e+00 +9.9999618647230237e-01
3.3000000000000016e+00 +4.6420007752598380e+00 +0.0000000000000000e+00 +3.2999955388415527e+00 -2.8480129164290737e-03 +0.0000000000000000e+00 +9.9999594440298989e-01
3.4000000000000017e+00 +4.6417116588121630e+00 +0.0000000000000000e+00 +3.3999951208680432e+00 -2.9343160317151658e-03 +0.0000000000000000e+00 +9.9999569488544593e-01
3.5000000000000018e+00 +4.6414139120545927e+00 +0.0000000000000000e+00 +3.4999946775703679e+00 -3.0206191140881781e-03 +0.0000000000000000e+00 +9.9999543791967749e-01
3.6000000000000019e+00 +4.6411075349904918e+00 +0.0000000000000000e+00 +3.5999942082037046e+00 -3.1069221620707720e-03 +0.0000000000000000e+00 +9.9999517350569189e-01
3.7000000000000020e+00 +4.6407925276233746e+00 +0.0000000000000000e+00 +3.6999937120232325e+00 -3.1932251741654321e-03 +0.0000000000000000e+00 +9.9999490164349691e-01
3.8000000000000020e+00 +4.6404688899569058e+00 +0.0000000000000000e+00 +3.7999931882841307e+00 -3.2795281488542868e-03 +0.0000000000000000e+00 +9.9999462233310077e-01
3.9000000000000021e+00 +4.6401366219949018e+00 +0.0000000000000000e+00 +3.8999926362415795e+00 -3.3658310845989213e-03 +0.0000000000000000e+00 +9.9999433557451212e-01
4.0000000000000018e+00 +4.6397957237413356e+00 +0.0000000000000000e+00 +3.9999920551507602e+00 -3.4521339798401791e-03 +0.0000000000000000e+00 +9.9999404136773995e-01
4.1000000000000014e+00 +4.6394461952003363e+00 +0.0000000000000000e+00 +4.0999914442668546e+00 -3.5384368330013964e-03 +0.0000000000000000e+00 +9.9999373971279382e-01
4.2000000000000011e+00 +4.6390880363761902e+00 +0.0000000000000000e+00 +4.1999908028450461e+00 -3.6247396425260888e-03 +0.0000000000000000e+00 +9.9999343060968349e-01
4.3000000000000007e+00 +4.6387212472733355e+00 +0.0000000000000000e+00 +4.2999901301405190e+00 -3.7110424069157497e-03 +0.0000000000000000e+00 +9.9999311405841895e-01
4.4000000000000004e+00 +4.6383458278963587e+00 +0.0000000000000000e+00 +4.3999894254084584e+00 -3.7973451247332742e-03 +0.0000000000000000e+00 +9.9999279005901021e-01
4.5000000000000000e+00 +4.6379617782499869e+00 +0.0000000000000000e+00 +4.4999886879040503e+00 -3.8836477946029421e-03 +0.0000000000000000e+00 +9.9999245861146746e-01
4.5999999999999996e+00 +4.6375690983390800e+00 +0.0000000000000000e+00 +4.5999879168824815e+00 -3.9699504152104041e-03 +0.0000000000000000e+00 +9.9999211971580093e-01
4.6999999999999993e+00 +4.6371677881686280e+00 +0.0000000000000000e+00 +4.6999871115989400e+00 -4.0562529853026708e-03 +0.0000000000000000e+00 +9.9999177337202094e-01
4.7999999999999989e+00 +4.6367578477437430e+00 +0.0000000000000000e+00 +4.7999862713086152e+00 -4.1425555036881060e-03 +0.0000000000000000e+00 +9.9999141958013771e-01
4.8999999999999986e+00 +4.6363392770696521e+00 +0.0000000000000000e+00 +4.8999853952666976e+00 -4.2288579692364176e-03 +0.0000000000000000e+00 +9.9999105834016144e-01
4.9999999999999982e+00 +4.6359120761516932e+00 +0.0000000000000000e+00 +4.9999844827283777e+00 -4.3151603808786560e-03 +0.0000000000000000e+00 +9.9999068965210247e-01
5.0999999999999979e+00 +4.6354762449953073e+00 +0.0000000000000000e+00 +5.0999835329488485e+00 -4.4014627376072132e-03 +0.0000000000000000e+00 +9.9999031351597090e-01
5.1999999999999975e+00 +4.6350317836060340e+00 +0.0000000000000000e+00 +5.1999825451833033e+00 -4.4877650384758236e-03 +0.0000000000000000e+00 +9.9998992993177671e-01
5.2999999999999972e+00 +4.6345786919895042e+00 +0.0000000000000000e+00 +5.2999815186869359e+00 -4.5740672825995699e-03 +0.0000000000000000e+00 +9.9998953889952991e-01
5.3999999999999968e+00 +4.6341169701514335e+00 +0.0000000000000000e+00 +5.3999804527149413e+00 -4.6603694691548878e-03 +0.0000000000000000e+00 +9.9998914041924036e-01
5.4999999999999964e+00 +4.6336466180976181e+00 +0.0000000000000000e+00 +5.4999793465225162e+00 -4.7466715973795764e-03 +0.0000000000000000e+00 +9.9998873449091763e-01
5.5999999999999961e+00 +4.6331676358339262e+00 +0.0000000000000000e+00 +5.5999781993648572e+00 -4.8329736665728117e-03 +0.0000000000000000e+00 +9.9998832111457103e-01
5.6999999999999957e+00 +4.6326800233662935e+00 +0.0000000000000000e+00 +5.6999770104971628e+00 -4.9192756760951589e-03 +0.0000000000000000e+00 +9.9998790029020990e-01
5.7999999999999954e+00 +4.6321837807007160e+00 +0.0000000000000000e+00 +5.7999757791746323e+00 -5.0055776253685918e-03 +0.0000000000000000e+00 +9.9998747201784310e-01
5.8999999999999950e+00 +4.6316789078432450e+00 +0.0000000000000000e+00 +5.8999745046524650e+00 -5.0918795138765096e-03 +0.0000000000000000e+00 +9.9998703629747931e-01
5.9999999999999947e+00 +4.6311654047999813e+00 +0.0000000000000000e+00 +5.9999731861858621e+00 -5.1781813411637644e-03 +0.0000000000000000e+00 +9.9998659312912697e-01
6.0999999999999943e+00 +4.6306432715770667e+00 +0.0000000000000000e+00 +6.0999718230300246e+00 -5.2644831068342094e-03 +0.0000000000000000e+00 +9.9998614251279405e-01
6.1999999999999940e+00 +4.6301125081806811e+00 +0.0000000000000000e+00 +6.1999704144401555e+00 -5.3507848105235206e-03 +0.0000000000000000e+00 +9.9998568444848834e-01
6.2999999999999936e+00 +4.6295731146170400e+00 +0.0000000000000000e+00 +6.2999689596714568e+00 -5.4370864518720015e-03 +0.0000000000000000e+00 +9.9998521893621761e-01
6.3999999999999932e+00 +4.6290250908923962e+00 +0.0000000000000000e+00 +6.3999674579791330e+00 -5.5233880305221427e-03 +0.0000000000000000e+00 +9.9998474597598963e-01
6.4999999999999929e+00 +4.6284684370130371e+00 +0.0000000000000000e+00 +6.4999659086183890e+00 -5.6096895461186609e-03 +0.0000000000000000e+00 +9.9998426556781206e-01
6.5999999999999925e+00 +4.6279031529852857e+00 +0.0000000000000000e+00 +6.5999643108444301e+00 -5.6959909983085415e-03 +0.0000000000000000e+00 +9.9998377771169245e-01
6.6999999999999922e+00 +4.6273292388155003e+00 +0.0000000000000000e+00 +6.6999626639124630e+00 -5.7822923867410806e-03 +0.0000000000000000e+00 +9.9998328240763834e-01
6.7999999999999918e+00 +4.6267466945100741e+00 +0.0000000000000000e+00 +6.7999609670776939e+00 -5.8685937110679338e-03 +0.0000000000000000e+00 +9.9998277965565729e-01
6.8999999999999915e+00 +4.6261555200754350e+00 +0.0000000000000000e+00 +6.8999592195953303e+00 -5.9548949709431658e-03 +0.0000000000000000e+00 +9.9998226945575663e-01
6.9999999999999911e+00 +4.6255557155180451e+00 +0.0000000000000000e+00 +6.9999574207205812e+00 -6.0411961660233023e-03 +0.0000000000000000e+00 +9.9998175180794380e-01
7.0999999999999908e+00 +4.6249472808444017e+00 +0.0000000000000000e+00 +7.0999555697086558e+00 -6.1274972959673843e-03 +0.0000000000000000e+00 +9.9998122671222600e-01
7.1999999999999904e+00 +4.6243302160610344e+00 +0.0000000000000000e+00 +7.1999536658147631e+00 -6.2137983604370261e-03 +0.0000000000000000e+00 +9.9998069416861057e-01
7.2999999999999901e+00 +4.6237045211745080e+00 +0.0000000000000000e+00 +7.2999517082941150e+00 -6.3000993590964774e-03 +0.0000000000000000e+00 +9.9998015417710462e-01
7.3999999999999897e+00 +4.6230701961914198e+00 +0.0000000000000000e+00 +7.3999496964019214e+00 -6.3864002916126832e-03 +0.0000000000000000e+00 +9.9997960673771524e-01
7.4999999999999893e+00 +4.6224272411184009e+00 +0.0000000000000000e+00 +7.4999476293933949e+00 -6.4727011576553523e-03 +0.0000000000000000e+00 +9.9997905185044955e-01
7.5999999999999890e+00 +4.6217756559621153e+00 +0.0000000000000000e+00 +7.5999455065237482e+00 -6.5590019568970244e-03 +0.0000000000000000e+00 +9.9997848951531443e-01
7.6999999999999886e+00 +4.6211154407292589e+00 +0.0000000000000000e+00 +7.6999433270481950e+00 -6.6453026890131404e-03 +0.0000000000000000e+00 +9.9997791973231676e-01
7.7999999999999883e+00 +4.6204465954265608e+00 +0.0000000000000000e+00 +7.7999410902219495e+00 -6.7316033536821166e-03 +0.0000000000000000e+00 +9.9997734250146342e-01
7.8999999999999879e+00 +4.6197691200607816e+00 +0.0000000000000000e+00 +7.8999387953002262e+00 -6.8179039505854222e-03 +0.0000000000000000e+00 +9.9997675782276108e-01
7.9999999999999876e+00 +4.6190830146387132e+00 +0.0000000000000000e+00 +7.9999364415382406e+00 -6.9042044794076557e-03 +0.0000000000000000e+00 +9.9997616569621639e-01
8.0999999999999872e+00 +4.6183882791671795e+00 +0.0000000000000000e+00 +8.0999340281912087e+00 -6.9905049398360413e-03 +0.0000000000000000e+00 +9.9997556612183602e-01
8.1999999999999869e+00 +4.6176849136530365e+00 +0.0000000000000000e+00 +8.1999315545143467e+00 -7.0768053315540293e-03 +0.0000000000000000e+00 +9.9997495909962641e-01
8.2999999999999865e+00 +4.6169729181031700e+00 +0.0000000000000000e+00 +8.2999290197628728e+00 -7.1631056542348576e-03 +0.0000000000000000e+00 +9.9997434462959423e-01
8.3999999999999861e+00 +4.6162522925245018e+00 +0.0000000000000000e+00 +8.3999264231920048e+00 -7.2494059075409907e-03 +0.0000000000000000e+00 +9.9997372271174600e-01
8.4999999999999858e+00 +4.6155230369239861e+00 +0.0000000000000000e+00 +8.4999237640569607e+00 -7.3357060911241456e-03 +0.0000000000000000e+00 +9.9997309334608842e-01
8.5999999999999854e+00 +4.6147851513086131e+00 +0.0000000000000000e+00 +8.5999210416129621e+00 -7.4220062046253229e-03 +0.0000000000000000e+00 +9.9997245653262801e-01
8.6999999999999851e+00 +4.6140386356854091e+00 +0.0000000000000000e+00 +8.6999182551152270e+00 -7.5083062476748348e-03 +0.0000000000000000e+00 +9.9997181227137155e-01
8.7999999999999847e+00 +4.6132834900614386e+00 +0.0000000000000000e+00 +8.7999154038189769e+00 -7.5946062198923355e-03 +0.0000000000000000e+00 +9.9997116056232582e-01
8.8999999999999844e+00 +4.6125197144438044e+00 +0.0000000000000000e+00 +8.8999124869794333e+00 -7.6809061208868530e-03 +0.0000000000000000e+00 +9.9997050140549759e-01
8.9999999999999840e+00 +4.6117473088396483e+00 +0.0000000000000000e+00 +8.9999095038518178e+00 -7.7672059502568187e-03 +0.0000000000000000e+00 +9.9996983480089363e-01
9.0999999999999837e+00 +4.6109662732561540e+00 +0.0000000000000000e+00 +9.0999064536913536e+00 -7.8535057075901013e-03 +0.0000000000000000e+00 +9.9996916074852082e-01
9.1999999999999833e+00 +4.6101766077005459e+00 +0.0000000000000000e+00 +9.1999033357532642e+00 -7.9398053924640364e-03 +0.0000000000000000e+00 +9.9996847924838617e-01
9.2999999999999829e+00 +4.6093783121800911e+00 +0.0000000000000000e+00 +9.2999001492927729e+00 -8.0261050044454618e-03 +0.0000000000000000e+00 +9.9996779030049654e-01
9.3999999999999826e+00 +4.6085713867021010e+00 +0.0000000000000000e+00 +9.3998968935651046e+00 -8.1124045430907496e-03 +0.0000000000000000e+00 +9.9996709390485916e-01
9.4999999999999822e+00 +4.6077558312739324e+00 +0.0000000000000000e+00 +9.4998935678254863e+00 -8.1987040079458430e-03 +0.0000000000000000e+00 +9.9996639006148114e-01
9.5999999999999819e+00 +4.6069316459029874e+00 +0.0000000000000000e+00 +9.5998901713291431e+00 -8.2850033985462888e-03 +0.0000000000000000e+00 +9.9996567877036968e-01
9.6999999999999815e+00 +4.6060988305967143e+00 +0.0000000000000000e+00 +9.6998867033313019e+00 -8.3713027144172725e-03 +0.0000000000000000e+00 +9.9996496003153212e-01
9.7999999999999812e+00 +4.6052573853626111e+00 +0.0000000000000000e+00 +9.7998831630871912e+00 -8.4576019550736559e-03 +0.0000000000000000e+00 +9.9996423384497590e-01
9.8999999999999808e+00 +4.6044073102082237e+00 +0.0000000000000000e+00 +9.8998795498520398e+00 -8.5439011200200091e-03 +0.0000000000000000e+00 +9.9996350021070846e-01
9.9999999999999805e+00 +4.6035486051411478e+00 +0.0000000000000000e+00 +9.9998758628810762e+00 -8.6302002087506515e-03 +0.0000000000000000e+00 +9.9996275912873733e-01
1.0099999999999980e+01 +4.6026812701690316e+00 +0.0000000000000000e+00 +1.0099872101429531e+01 -8.7164992207483614e-03 +0.0000000000000000e+00 +9.9996201059907019e-01
1.0199999999999980e+01 +4.6018053052995747e+00 +0.0000000000000000e+00 +1.0199868264752634e+01 -8.8027981554697800e-03 +0.0000000000000000e+00 +9.9996125462171503e-01
1.0299999999999979e+01 +4.6009207105405334e+00 +0.0000000000000000e+00 +1.0299864352105619e+01 -8.8890970123307964e-03 +0.0000000000000000e+00 +9.9996049119668007e-01
1.0399999999999979e+01 +4.6000274858997248e+00 +0.0000000000000000e+00 +1.0399860362743715e+01 -8.9753957907052588e-03 +0.0000000000000000e+00 +9.9995972032397407e-01
1.0499999999999979e+01 +4.5991256313850304e+00 +0.0000000000000000e+00 +1.0499856295922157e+01 -9.0616944899250453e-03 +0.0000000000000000e+00 +9.9995894200360624e-01
1.0599999999999978e+01 +4.5982151470044013e+00 +0.0000000000000000e+00 +1.0599852150896181e+01 -9.1479931092801215e-03 +0.0000000000000000e+00 +9.9995815623558615e-01
1.0699999999999978e+01 +4.5972960327658612e+00 +0.0000000000000000e+00 +1.0699847926921020e+01 -9.2342916480186096e-03 +0.0000000000000000e+00 +9.9995736301992377e-01
1.0799999999999978e+01 +4.5963682886775112e+00 +0.0000000000000000e+00 +1.0799843623251911e+01 -9.3205901053468477e-03 +0.0000000000000000e+00 +9.9995656235662977e-01
1.0899999999999977e+01 +4.5954319147475333e+00 +0.0000000000000000e+00 +1.0899839239144093e+01 -9.4068884804294622e-03 +0.0000000000000000e+00 +9.9995575424571514e-01
1.0999999999999977e+01 +4.5944869109841955e+00 +0.0000000000000000e+00 +1.0999834773852802e+01 -9.4931867723894361e-03 +0.0000000000000000e+00 +9.9995493868719143e-01
1.1099999999999977e+01 +4.5935332773958564e+00 +0.0000000000000000e+00 +1.1099830226633278e+01 -9.5794849803081759e-03 +0.0000000000000000e+00 +9.9995411568107073e-01
1.1199999999999976e+01 +4.5925710139909670e+00 +0.0000000000000000e+00 +1.1199825596740764e+01 -9.6657831032255833e-03 +0.0000000000000000e+00 +9.9995328522736582e-01
1.1299999999999976e+01 +4.5916001207780779e+00 +0.0000000000000000e+00 +1.1299820883430501e+01 -9.7520811401401297e-03 +0.0000000000000000e+00 +9.9995244732608979e-01
1.1399999999999975e+01 +4.5906205977658407e+00 +0.0000000000000000e+00 +1.1399816085957731e+01 -9.8383790900089287e-03 +0.0000000000000000e+00 +9.9995160197725641e-01
1.1499999999999975e+01 +4.5896324449630139e+00 +0.0000000000000000e+00 +1.1499811203577702e+01 -9.9246769517478076e-03 +0.0000000000000000e+00 +9.9995074918088023e-01
1.1599999999999975e+01 +4.5886356623784668e+00 +0.0000000000000000e+00 +1.1599806235545657e+01 -1.0010974724231391e-02 +0.0000000000000000e+00 +9.9994988893697623e-01
1.1699999999999974e+01 +4.5876302500211823e+00 +0.0000000000000000e+00 +1.1699801181116847e+01 -1.0097272406293172e-02 +0.0000000000000000e+00 +9.9994902124555995e-01
1.1799999999999974e+01 +4.5866162079002626e+00 +0.0000000000000000e+00 +1.1799796039546520e+01 -1.0183569996725593e-02 +0.0000000000000000e+00 +9.9994814610664784e-01
