# trajectory
# s[mm] rx[mm] ry[mm] rz[mm] px[rad] py[rad] pz[rad]
0.0000000000000000e+00 +4.6467000000000001e+00 +0.0000000000000000e+00 +0.0000000000000000e+00 +0.0000000000000000e+00 +0.0000000000000000e+00 +1.0000000000000000e+00
1.0000000000000001e-01 +4.6466995720276332e+00 +0.0000000000000000e+00 +9.9999999998778927e-02 -8.5594473679725100e-06 +0.0000000000000000e+00 +9.9999999996336797e-01
2.0000000000000001e-01 +4.6466982881105130e+00 +0.0000000000000000e+00 +1.9999999999023144e-01 -1.7118895131478825e-05 +0.0000000000000000e+00 +9.9999999985347177e-01
3.0000000000000004e-01 +4.6466961482485827e+00 +0.0000000000000000e+00 +2.9999999996703114e-01 -2.5678343628062691e-05 +0.0000000000000000e+00 +9.9999999967031139e-01
4.0000000000000002e-01 +4.6466931524417525e+00 +0.0000000000000000e+00 +3.9999999992185159e-01 -3.4237793172256408e-05 +0.0000000000000000e+00 +9.9999999941388684e-01
5.0000000000000000e-01 +4.6466893006899035e+00 +0.0000000000000000e+00 +4.9999999984736637e-01 -4.2797244055581751e-05 +0.0000000000000000e+00 +9.9999999908419801e-01
5.9999999999999998e-01 +4.6466845929928882e+00 +0.0000000000000000e+00 +5.9999999973624907e-01 -5.1356696546550704e-05 +0.0000000000000000e+00 +9.9999999868124489e-01
6.9999999999999996e-01 +4.6466790293505325e+00 +0.0000000000000000e+00 +6.9999999958117320e-01 -5.9916150890666051e-05 +0.0000000000000000e+00 +9.9999999820502750e-01
7.9999999999999993e-01 +4.6466726097626410e+00 +0.0000000000000000e+00 +7.9999999937481237e-01 -6.8475607310421825e-05 +0.0000000000000000e+00 +9.9999999765554570e-01
8.9999999999999991e-01 +4.6466653342289952e+00 +0.0000000000000000e+00 +8.9999999910984019e-01 -7.7035066005303582e-05 +0.0000000000000000e+00 +9.9999999703279940e-01
9.9999999999999989e-01 +4.6466572027493580e+00 +0.0000000000000000e+00 +9.9999999877893009e-01 -8.5594527151788523e-05 +0.0000000000000000e+00 +9.9999999633678860e-01
1.0999999999999999e+00 +4.6466482153234772e+00 +0.0000000000000000e+00 +1.0999999983747557e+00 -9.4153990903345493e-05 +0.0000000000000000e+00 +9.9999999556751318e-01
1.2000000000000000e+00 +4.6466383719510853e+00 +0.0000000000000000e+00 +1.1999999978899905e+00 -1.0271345739043472e-04 +0.0000000000000000e+00 +9.9999999472497303e-01
1.3000000000000000e+00 +4.6466276726319036e+00 +0.0000000000000000e+00 +1.2999999973173080e+00 -1.1127292672050757e-04 +0.0000000000000000e+00 +9.9999999380916804e-01
1.4000000000000001e+00 +4.6466161173656433e+00 +0.0000000000000000e+00 +1.3999999966493819e+00 -1.1983239897800596e-04 +0.0000000000000000e+00 +9.9999999282009822e-01
1.5000000000000002e+00 +4.6466037061520087e+00 +0.0000000000000000e+00 +1.4999999958788854e+00 -1.2839187422436176e-04 +0.0000000000000000e+00 +9.9999999175776344e-01
1.6000000000000003e+00 +4.6465904389906978e+00 +0.0000000000000000e+00 +1.5999999949984924e+00 -1.3695135249799597e-04 +0.0000000000000000e+00 +9.9999999062216360e-01
1.7000000000000004e+00 +4.6465763158814077e+00 +0.0000000000000000e+00 +1.6999999940008761e+00 -1.4551083381431776e-04 +0.0000000000000000e+00 +9.9999998941329871e-01
1.8000000000000005e+00 +4.6465613368238339e+00 +0.0000000000000000e+00 +1.7999999928787100e+00 -1.5407031816572328e-04 +0.0000000000000000e+00 +9.9999998813116864e-01
1.9000000000000006e+00 +4.6465455018176742e+00 +0.0000000000000000e+00 +1.8999999916246677e+00 -1.6262980552159451e-04 +0.0000000000000000e+00 +9.9999998677577329e-01
2.0000000000000004e+00 +4.6465288108626313e+00 +0.0000000000000000e+00 +1.9999999902314225e+00 -1.7118929582829771e-04 +0.0000000000000000e+00 +9.9999998534711254e-01
2.1000000000000005e+00 +4.6465112639584127e+00 +0.0000000000000000e+00 +2.0999999886916481e+00 -1.7974878900977267e-04 +0.0000000000000000e+00 +9.9999998384518640e-01
2.2000000000000006e+00 +4.6464928611047362e+00 +0.0000000000000000e+00 +2.1999999869980176e+00 -1.8830828497403023e-04 +0.0000000000000000e+00 +9.9999998226999487e-01
2.3000000000000007e+00 +4.6464736023013282e+00 +0.0000000000000000e+00 +2.2999999851432049e+00 -1.9686778361965038e-04 +0.0000000000000000e+00 +9.9999998062153783e-01
2.4000000000000008e+00 +4.6464534875479266e+00 +0.0000000000000000e+00 +2.3999999831198831e+00 -2.0542728483637269e-04 +0.0000000000000000e+00 +9.9999997889981518e-01
2.5000000000000009e+00 +4.6464325168442793e+00 +0.0000000000000000e+00 +2.4999999809207258e+00 -2.1398678850509604e-04 +0.0000000000000000e+00 +9.9999997710482702e-01
2.6000000000000010e+00 +4.6464106901901481e+00 +0.0000000000000000e+00 +2.5999999785384063e+00 -2.2254629449787813e-04 +0.0000000000000000e+00 +9.9999997523657325e-01
2.7000000000000011e+00 +4.6463880075853066e+00 +0.0000000000000000e+00 +2.6999999759655982e+00 -2.3110580267793530e-04 +0.0000000000000000e+00 +9.9999997329505375e-01
2.8000000000000012e+00 +4.6463644690295443e+00 +0.0000000000000000e+00 +2.7999999731949750e+00 -2.3966531289964219e-04 +0.0000000000000000e+00 +9.9999997128026863e-01
2.9000000000000012e+00 +4.6463400745226640e+00 +0.0000000000000000e+00 +2.8999999702192096e+00 -2.4822482500853150e-04 +0.0000000000000000e+00 +9.9999996919221779e-01
3.0000000000000013e+00 +4.6463148240644854e+00 +0.0000000000000000e+00 +2.9999999670309760e+00 -2.5678433884129370e-04 +0.0000000000000000e+00 +9.9999996703090122e-01
3.1000000000000014e+00 +4.6462887176548442e+00 +0.0000000000000000e+00 +3.0999999636229476e+00 -2.6534385422577673e-04 +0.0000000000000000e+00 +9.9999996479631903e-01
3.2000000000000015e+00 +4.6462617552935948e+00 +0.0000000000000000e+00 +3.1999999599877977e+00 -2.7390337098098599e-04 +0.0000000000000000e+00 +9.9999996248847112e-01
3.3000000000000016e+00 +4.6462339369806092e+00 +0.0000000000000000e+00 +3.2999999561181999e+00 -2.8246288891708402e-04 +0.0000000000000000e+00 +9.9999996010735759e-01
3.4000000000000017e+00 +4.6462052627157790e+00 +0.0000000000000000e+00 +3.3999999520068274e+00 -2.9102240783539040e-04 +0.0000000000000000e+00 +9.9999995765297833e-01
3.5000000000000018e+00 +4.6461757324990165e+00 +0.0000000000000000e+00 +3.4999999476463537e+00 -2.9958192752838146e-04 +0.0000000000000000e+00 +9.9999995512533346e-01
3.6000000000000019e+00 +4.6461453463302549e+00 +0.0000000000000000e+00 +3.5999999430294523e+00 -3.0814144777969034e-04 +0.0000000000000000e+00 +9.9999995252442309e-01
3.7000000000000020e+00 +4.6461141042094498e+00 +0.0000000000000000e+00 +3.6999999381487965e+00 -3.1670096836410684e-04 +0.0000000000000000e+00 +9.9999994985024721e-01
3.8000000000000020e+00 +4.6460820061365791e+00 +0.0000000000000000e+00 +3.7999999329970597e+00 -3.2526048904757730e-04 +0.0000000000000000e+00 +9.9999994710280593e-01
3.9000000000000021e+00 +4.6460490521116453e+00 +0.0000000000000000e+00 +3.8999999275669155e+00 -3.3382000958720454e-04 +0.0000000000000000e+00 +9.9999994428209926e-01
4.0000000000000018e+00 +4.6460152421346752e+00 +0.0000000000000000e+00 +3.9999999218510371e+00 -3.4237952973124782e-04 +0.0000000000000000e+00 +9.9999994138812731e-01
4.1000000000000014e+00 +4.6459805762057211e+00 +0.0000000000000000e+00 +4.0999999158420986e+00 -3.5093904922020651e-04 +0.0000000000000000e+00 +9.9999993842089019e-01
4.2000000000000011e+00 +4.6459450543248613e+00 +0.0000000000000000e+00 +4.1999999095327727e+00 -3.5949856779873905e-04 +0.0000000000000000e+00 +9.9999993538038801e-01
4.3000000000000007e+00 +4.6459086764921995e+00 +0.0000000000000000e+00 +4.2999999029157339e+00 -3.6805808522758307e-04 +0.0000000000000000e+00 +9.9999993226662087e-01
4.4000000000000004e+00 +4.6458714427078620e+00 +0.0000000000000000e+00 +4.3999998959836546e+00 -3.7661760128464050e-04 +0.0000000000000000e+00 +9.9999992907958890e-01
4.5000000000000000e+00 +4.6458333529719953e+00 +0.0000000000000000e+00 +4.4999998887292092e+00 -3.8517711576497920e-04 +0.0000000000000000e+00 +9.9999992581929220e-01
4.5999999999999996e+00 +4.6457944072847672e+00 +0.0000000000000000e+00 +4.5999998811450711e+00 -3.9373662848083481e-04 +0.0000000000000000e+00 +9.9999992248573089e-01
4.6999999999999993e+00 +4.6457546056463634e+00 +0.0000000000000000e+00 +4.6999998732239137e+00 -4.0229613926161256e-04 +0.0000000000000000e+00 +9.9999991907890506e-01
4.7999999999999989e+00 +4.6457139480569847e+00 +0.0000000000000000e+00 +4.7999998649584104e+00 -4.1085564795388934e-04 +0.0000000000000000e+00 +9.9999991559881485e-01
4.8999999999999986e+00 +4.6456724345168467e+00 +0.0000000000000000e+00 +4.8999998563412346e+00 -4.1941515442141573e-04 +0.0000000000000000e+00 +9.9999991204546035e-01
4.9999999999999982e+00 +4.6456300650261788e+00 +0.0000000000000000e+00 +4.9999998473650606e+00 -4.2797465854511836e-04 +0.0000000000000000e+00 +9.9999990841884168e-01
5.0999999999999979e+00 +4.6455868395852198e+00 +0.0000000000000000e+00 +5.0999998380225611e+00 -4.3653416022310207e-04 +0.0000000000000000e+00 +9.9999990471895894e-01
5.1999999999999975e+00 +4.6455427581942184e+00 +0.0000000000000000e+00 +5.1999998283064102e+00 -4.4509365937065251e-04 +0.0000000000000000e+00 +9.9999990094581226e-01
5.2999999999999972e+00 +4.6454978208534321e+00 +0.0000000000000000e+00 +5.2999998182092813e+00 -4.5365315592023851e-04 +0.0000000000000000e+00 +9.9999989709940174e-01
5.3999999999999968e+00 +4.6454520275631230e+00 +0.0000000000000000e+00 +5.3999998077238480e+00 -4.6221264982151489e-04 +0.0000000000000000e+00 +9.9999989317972748e-01
5.4999999999999964e+00 +4.6454053783235576e+00 +0.0000000000000000e+00 +5.4999997968427845e+00 -4.7077214104132516e-04 +0.0000000000000000e+00 +9.9999988918678950e-01
5.5999999999999961e+00 +4.6453578731350049e+00 +0.0000000000000000e+00 +5.5999997855587642e+00 -4.7933162956370428e-04 +0.0000000000000000e+00 +9.9999988512058791e-01
5.6999999999999957e+00 +4.6453095119977350e+00 +0.0000000000000000e+00 +5.6999997738644606e+00 -4.8789111538988179e-04 +0.0000000000000000e+00 +9.9999988098112269e-01
5.7999999999999954e+00 +4.6452602949120161e+00 +0.0000000000000000e+00 +5.7999997617525469e+00 -4.9645059853828486e-04 +0.0000000000000000e+00 +9.9999987676839397e-01
5.8999999999999950e+00 +4.6452102218781155e+00 +0.0000000000000000e+00 +5.8999997492156968e+00 -5.0501007904454149e-04 +0.0000000000000000e+00 +9.9999987248240185e-01
5.9999999999999947e+00 +4.6451592928962935e+00 +0.0000000000000000e+00 +5.9999997362465844e+00 -5.1356955696148362e-04 +0.0000000000000000e+00 +9.9999986812314634e-01
6.0999999999999943e+00 +4.6451075079668067e+00 +0.0000000000000000e+00 +6.0999997228378833e+00 -5.2212903235827402e-04 +0.0000000000000000e+00 +9.9999986369062743e-01
6.1999999999999940e+00 +4.6450548670899030e+00 +0.0000000000000000e+00 +6.1999997089822676e+00 -5.3068850531076510e-04 +0.0000000000000000e+00 +9.9999985918484524e-01
6.2999999999999936e+00 +4.6450013702658230e+00 +0.0000000000000000e+00 +6.2999996946724099e+00 -5.3924797589185352e-04 +0.0000000000000000e+00 +9.9999985460579965e-01
6.3999999999999932e+00 +4.6449470174948013e+00 +0.0000000000000000e+00 +6.3999996799009846e+00 -5.4780744417060111e-04 +0.0000000000000000e+00 +9.9999984995349078e-01
6.4999999999999929e+00 +4.6448918087770634e+00 +0.0000000000000000e+00 +6.4999996646606659e+00 -5.5636691021223098e-04 +0.0000000000000000e+00 +9.9999984522791863e-01
6.5999999999999925e+00 +4.6448357441128314e+00 +0.0000000000000000e+00 +6.5999996489441264e+00 -5.6492637407812448e-04 +0.0000000000000000e+00 +9.9999984042908319e-01
6.6999999999999922e+00 +4.6447788235023184e+00 +0.0000000000000000e+00 +6.6999996327440403e+00 -5.7348583582581751e-04 +0.0000000000000000e+00 +9.9999983555698446e-01
6.7999999999999918e+00 +4.6447210469457350e+00 +0.0000000000000000e+00 +6.7999996160530811e+00 -5.8204529550899672e-04 +0.0000000000000000e+00 +9.9999983061162256e-01
6.8999999999999915e+00 +4.6446624144432844e+00 +0.0000000000000000e+00 +6.8999995988639222e+00 -5.9060475317749563e-04 +0.0000000000000000e+00 +9.9999982559299749e-01
6.9999999999999911e+00 +4.6446029259951658e+00 +0.0000000000000000e+00 +6.9999995811692379e+00 -5.9916420887729048e-04 +0.0000000000000000e+00 +9.9999982050110925e-01
7.0999999999999908e+00 +4.6445425816015735e+00 +0.0000000000000000e+00 +7.0999995629617016e+00 -6.0772366265049622e-04 +0.0000000000000000e+00 +9.9999981533595783e-01
7.1999999999999904e+00 +4.6444813812626986e+00 +0.0000000000000000e+00 +7.1999995442339868e+00 -6.1628311453536201e-04 +0.0000000000000000e+00 +9.9999981009754324e-01
7.2999999999999901e+00 +4.6444193249787284e+00 +0.0000000000000000e+00 +7.2999995249787677e+00 -6.2484256456626659e-04 +0.0000000000000000e+00 +9.9999980478586559e-01
7.3999999999999897e+00 +4.6443564127498460e+00 +0.0000000000000000e+00 +7.3999995051887177e+00 -6.3340201277371365e-04 +0.0000000000000000e+00 +9.9999979940092487e-01
7.4999999999999893e+00 +4.6442926445762334e+00 +0.0000000000000000e+00 +7.4999994848565104e+00 -6.4196145918432688e-04 +0.0000000000000000e+00 +9.9999979394272109e-01
7.5999999999999890e+00 +4.6442280204580682e+00 +0.0000000000000000e+00 +7.5999994639748198e+00 -6.5052090382084502e-04 +0.0000000000000000e+00 +9.9999978841125436e-01
7.6999999999999886e+00 +4.6441625403955271e+00 +0.0000000000000000e+00 +7.6999994425363196e+00 -6.5908034670211671e-04 +0.0000000000000000e+00 +9.9999978280652457e-01
7.7999999999999883e+00 +4.6440962043887852e+00 +0.0000000000000000e+00 +7.7999994205336831e+00 -6.6763978784309494e-04 +0.0000000000000000e+00 +9.9999977712853183e-01
7.8999999999999879e+00 +4.6440290124380157e+00 +0.0000000000000000e+00 +7.8999993979595837e+00 -6.7619922725483197e-04 +0.0000000000000000e+00 +9.9999977137727625e-01
7.9999999999999876e+00 +4.6439609645433917e+00 +0.0000000000000000e+00 +7.9999993748066958e+00 -6.8475866494447312e-04 +0.0000000000000000e+00 +9.9999976555275771e-01
8.0999999999999872e+00 +4.6438920607050846e+00 +0.0000000000000000e+00 +8.0999993510676926e+00 -6.9331810091546571e-04 +0.0000000000000000e+00 +9.9999975965497634e-01
8.1999999999999869e+00 +4.6438223009232660e+00 +0.0000000000000000e+00 +8.1999993267352487e+00 -7.0187753516991387e-04 +0.0000000000000000e+00 +9.9999975368393224e-01
8.2999999999999865e+00 +4.6437516851981080e+00 +0.0000000000000000e+00 +8.2999993018020373e+00 -7.1043696771093791e-04 +0.0000000000000000e+00 +9.9999974763962540e-01
8.3999999999999861e+00 +4.6436802135297812e+00 +0.0000000000000000e+00 +8.3999992762607327e+00 -7.1899639854289157e-04 +0.0000000000000000e+00 +9.9999974152205584e-01
8.4999999999999858e+00 +4.6436078859184562e+00 +0.0000000000000000e+00 +8.4999992501040076e+00 -7.2755582767136543e-04 +0.0000000000000000e+00 +9.9999973533122355e-01
8.5999999999999854e+00 +4.6435347023643034e+00 +0.0000000000000000e+00 +8.5999992233245361e+00 -7.3611525510318973e-04 +0.0000000000000000e+00 +9.9999972906712864e-01
8.6999999999999851e+00 +4.6434606628674917e+00 +0.0000000000000000e+00 +8.6999991959149909e+00 -7.4467468084643768e-04 +0.0000000000000000e+00 +9.9999972272977111e-01
8.7999999999999847e+00 +4.6433857674281898e+00 +0.0000000000000000e+00 +8.7999991678680480e+00 -7.5323410491042906e-04 +0.0000000000000000e+00 +9.9999971631915108e-01
8.8999999999999844e+00 +4.6433100160465655e+00 +0.0000000000000000e+00 +8.8999991391763800e+00 -7.6179352730573377e-04 +0.0000000000000000e+00 +9.9999970983526854e-01
8.9999999999999840e+00 +4.6432334087227840e+00 +0.0000000000000000e+00 +8.9999991098326593e+00 -7.7035294804417515e-04 +0.0000000000000000e+00 +9.9999970327812349e-01
9.0999999999999837e+00 +4.6431559454570115e+00 +0.0000000000000000e+00 +9.0999990798295620e+00 -7.7891236713883408e-04 +0.0000000000000000e+00 +9.9999969664771593e-01
9.1999999999999833e+00 +4.6430776262494105e+00 +0.0000000000000000e+00 +9.1999990491597607e+00 -7.8747178460405261e-04 +0.0000000000000000e+00 +9.9999968994404598e-01
9.2999999999999829e+00 +4.6429984511001443e+00 +0.0000000000000000e+00 +9.2999990178159297e+00 -7.9603120045543805e-04 +0.0000000000000000e+00 +9.9999968316711363e-01
9.3999999999999826e+00 +4.6429184200093729e+00 +0.0000000000000000e+00 +9.3999989857907416e+00 -8.0459061470986709e-04 +0.0000000000000000e+00 +9.9999967631691888e-01
9.4999999999999822e+00 +4.6428375329772553e+00 +0.0000000000000000e+00 +9.4999989530768705e+00 -8.1315002738548993e-04 +0.0000000000000000e+00 +9.9999966939346174e-01
9.5999999999999819e+00 +4.6427557900039478e+00 +0.0000000000000000e+00 +9.5999989196669908e+00 -8.2170943850173482e-04 +0.0000000000000000e+00 +9.9999966239674232e-01
9.6999999999999815e+00 +4.6426731910896057e+00 +0.0000000000000000e+00 +9.6999988855537769e+00 -8.3026884807931229e-04 +0.0000000000000000e+00 +9.9999965532676049e-01
9.7999999999999812e+00 +4.6425897362343820e+00 +0.0000000000000000e+00 +9.7999988507299012e+00 -8.3882825614021972e-04 +0.0000000000000000e+00 +9.9999964818351639e-01
9.8999999999999808e+00 +4.6425054254384275e+00 +0.0000000000000000e+00 +9.8999988151880380e+00 -8.4738766270774622e-04 +0.0000000000000000e+00 +9.9999964096701000e-01
9.9999999999999805e+00 +4.6424202587018897e+00 +0.0000000000000000e+00 +9.9999987789208618e+00 -8.5594706780647714e-04 +0.0000000000000000e+00 +9.9999963367724132e-01
1.0099999999999980e+01 +4.6423342360249142e+00 +0.0000000000000000e+00 +1.0099998741921045e+01 -8.6450647146186794e-04 +0.0000000000000000e+00 +9.9999962631421047e-01
1.0199999999999980e+01 +4.6422473574076442e+00 +0.0000000000000000e+00 +1.0199998704181262e+01 -8.7306587369550192e-04 +0.0000000000000000e+00 +9.9999961887791733e-01
1.0299999999999979e+01 +4.6421596228502215e+00 +0.0000000000000000e+00 +1.0299998665694186e+01 -8.8162527452034410e-04 +0.0000000000000000e+00 +9.9999961136836202e-01
1.0399999999999979e+01 +4.6420710323527867e+00 +0.0000000000000000e+00 +1.0399998626452492e+01 -8.9018467394030615e-04 +0.0000000000000000e+00 +9.9999960378554453e-01
1.0499999999999979e+01 +4.6419815859154800e+00 +0.0000000000000000e+00 +1.0499998586448852e+01 -8.9874407195024344e-04 +0.0000000000000000e+00 +9.9999959612946487e-01
1.0599999999999978e+01 +4.6418912835384436e+00 +0.0000000000000000e+00 +1.0599998545675941e+01 -9.0730346853595118e-04 +0.0000000000000000e+00 +9.9999958840012315e-01
1.0699999999999978e+01 +4.6418001252218213e+00 +0.0000000000000000e+00 +1.0699998504126434e+01 -9.1586286367416119e-04 +0.0000000000000000e+00 +9.9999958059751937e-01
1.0799999999999978e+01 +4.6417081109657587e+00 +0.0000000000000000e+00 +1.0799998461793002e+01 -9.2442225733253792e-04 +0.0000000000000000e+00 +9.9999957272165363e-01
1.0899999999999977e+01 +4.6416152407704061e+00 +0.0000000000000000e+00 +1.0899998418668321e+01 -9.3298164946967492e-04 +0.0000000000000000e+00 +9.9999956477252605e-01
1.0999999999999977e+01 +4.6415215146359179e+00 +0.0000000000000000e+00 +1.0999998374745065e+01 -9.4154104003509097e-04 +0.0000000000000000e+00 +9.9999955675013663e-01
1.1099999999999977e+01 +4.6414269325624540e+00 +0.0000000000000000e+00 +1.1099998330015907e+01 -9.5010042896922597e-04 +0.0000000000000000e+00 +9.9999954865448548e-01
1.1199999999999976e+01 +4.6413314945501805e+00 +0.0000000000000000e+00 +1.1199998284473521e+01 -9.5865981620343714e-04 +0.0000000000000000e+00 +9.9999954048557271e-01
1.1299999999999976e+01 +4.6412352005992723e+00 +0.0000000000000000e+00 +1.1299998238110581e+01 -9.6721920165999476e-04 +0.0000000000000000e+00 +9.9999953224339844e-01
1.1399999999999975e+01 +4.6411380507099107e+00 +0.0000000000000000e+00 +1.1399998190919758e+01 -9.7577858525207809e-04 +0.0000000000000000e+00 +9.9999952392796287e-01
1.1499999999999975e+01 +4.6410400448822875e+00 +0.0000000000000000e+00 +1.1499998142893730e+01 -9.8433796688377081e-04 +0.0000000000000000e+00 +9.9999951553926603e-01
1.1599999999999975e+01 +4.6409411831166034e+00 +0.0000000000000000e+00 +1.1599998094025169e+01 -9.9289734645005719e-04 +0.0000000000000000e+00 +9.9999950707730811e-01
1.1699999999999974e+01 +4.6408414654130707e+00 +0.0000000000000000e+00 +1.1699998044306749e+01 -1.0014567238368168e-03 +0.0000000000000000e+00 +9.9999949854208936e-01
1.1799999999999974e+01 +4.6407408917719133e+00 +0.0000000000000000e+00 +1.1799997993731145e+01 -1.0100160989208206e-03 +0.0000000000000000e+00 +9.9999948993360988e-01
