# multipoles
# s[mm] polynom_b[n=0][T/m^n] polynom_b[n=1][T/m^n] polynom_b[n=2][T/m^n] polynom_b[n=3][T/m^n] polynom_b[n=4][T/m^n] polynom_b[n=5][T/m^n] polynom_b[n=6][T/m^n] 
+0.0000000000000000e+00 -3.4684066751723458e-01 +1.6551238167889033e-03 -1.7817716063889033e-01 -1.8509070280178058e+01 +8.7823935984410255e+01 +1.3454748572630101e+05 +7.4143249790856419e+06 
-1.0000000000000001e-01 -3.4684066239484962e-01 +1.6769346884389072e-03 -1.7894847420741275e-01 -1.8967594041784398e+01 +8.9594617535965952e+01 +1.3672070462235413e+05 +7.4225636882244758e+06 
-2.0000000000000001e-01 -3.4684065964910960e-01 +1.6993301717420346e-03 -1.7949815256132828e-01 -1.9439363173893359e+01 +8.7763160912672873e+01 +1.3893304985215439e+05 +7.4468828350114077e+06 
-3.0000000000000004e-01 -3.4684065929291508e-01 +1.7222062137714094e-03 -1.7984112148858550e-01 -1.9921776708322600e+01 +8.2651898620480324e+01 +1.4117238110501741e+05 +7.4857633858481385e+06 
-4.0000000000000002e-01 -3.4684066133916863e-01 +1.7454587518229924e-03 -1.7999230808289135e-01 -2.0412233447586551e+01 +7.4583212903494868e+01 +1.4342655673214569e+05 +7.5376860281320782e+06 
-5.0000000000000000e-01 -3.4684066580077449e-01 +1.7689837118924166e-03 -1.7996664038466006e-01 -2.0908131938573561e+01 +6.3879523698681098e+01 +1.4568343364606090e+05 +7.6011312419417091e+06 
-5.9999999999999998e-01 -3.4684067269063051e-01 +1.7926770099141549e-03 -1.7977904783852136e-01 -2.1406870536936868e+01 +5.0863289481237878e+01 +1.4793086777024603e+05 +7.6745793182509849e+06 
-6.9999999999999996e-01 -3.4684068202160073e-01 +1.8164345544319017e-03 -1.7944446470968745e-01 -2.1905847501094744e+01 +3.5857068721085881e+01 +1.5015671462709346e+05 +7.7565100790719250e+06 
-7.9999999999999993e-01 -3.4684069380654042e-01 +1.8401522467970585e-03 -1.7897782631447290e-01 -2.2402461023849213e+01 +1.9183440617940903e+01 +1.5234882959275026e+05 +7.8454032739458308e+06 
-8.9999999999999991e-01 -3.4684070805824807e-01 +1.8637259830979317e-03 -1.7839407477771976e-01 -2.2894109305589922e+01 +1.1651090150370418e+00 +1.5449506836429474e+05 +7.9397381043084487e+06 
-9.9999999999999989e-01 -3.4684072478946415e-01 +1.8870516536861779e-03 -1.7770815889953390e-01 -2.3378190568546060e+01 -1.7875105666769361e+01 +1.5658328712360849e+05 +8.0379932781196833e+06 
-1.0999999999999999e+00 -3.4684074401287729e-01 +1.9100251469285018e-03 -1.7693503285197215e-01 -2.3852103180347537e+01 -3.7614297583275572e+01 +1.5860134328609763e+05 +8.1386471749667265e+06 
-1.2000000000000000e+00 -3.4684076574109191e-01 +1.9325423483596955e-03 -1.7608965997222772e-01 -2.4313245658459884e+01 -5.7729409667291904e+01 +1.6053709561120882e+05 +8.2401775534636416e+06 
-1.3000000000000000e+00 -3.4684078998663859e-01 +1.9544991430568755e-03 -1.7518701125524111e-01 -2.4759016755809508e+01 -7.7897266521830232e+01 +1.6237840473806826e+05 +8.3410617194014154e+06 
-1.4000000000000001e+00 -3.4684081676193745e-01 +1.9757914157061884e-03 -1.7424206925221680e-01 -2.5186815487913190e+01 -9.7794508656153084e+01 +1.6411313341462423e+05 +8.4397762378272098e+06 
-1.5000000000000002e+00 -3.4684084607932092e-01 +1.9963150535842003e-03 -1.7326982513482342e-01 -2.5594041239245986e+01 -1.1709765247744237e+02 +1.6572914716602647e+05 +8.5347972298510820e+06 
-1.6000000000000003e+00 -3.4684087795097684e-01 +2.0159659457275594e-03 -1.7228528545434638e-01 -2.5978093763454549e+01 -1.3548296751909737e+02 +1.6721431436038364e+05 +8.6245998079236858e+06 
-1.7000000000000004e+00 -3.4684091238899040e-01 +2.0346399862293616e-03 -1.7130346623788226e-01 -2.6336373295700049e+01 -1.5262659711748225e+02 +1.6855650690625701e+05 +8.7076586709813438e+06 
-1.8000000000000005e+00 -3.4684094940530114e-01 +2.0522330737001554e-03 -1.7033939844201668e-01 -2.6666280565943328e+01 -1.6820445693151740e+02 +1.6974360040636073e+05 +8.7824476310913209e+06 
-1.9000000000000006e+00 -3.4684098901169264e-01 +2.0686411129320075e-03 -1.6940812853131254e-01 -2.6965216864402638e+01 -1.8189223323091525e+02 +1.7076347458436256e+05 +8.8474396318139900e+06 
-2.0000000000000004e+00 -3.4684103121981941e-01 +2.0837600414031171e-03 -1.6852471082705586e-01 -2.7230584734387477e+01 -1.9336555914224397e+02 +1.7160401467892714e+05 +8.9011074485894796e+06 
-2.1000000000000005e+00 -3.4684107600386088e-01 +2.0975142469433303e-03 -1.6769895042691327e-01 -2.7460524934398212e+01 -2.0242485281459469e+02 +1.7225656527918653e+05 +8.9424949891280532e+06 
-2.2000000000000006e+00 -3.4684112319683374e-01 +2.1099063250837645e-03 -1.6692331044638431e-01 -2.7655414565488861e+01 -2.0926187854513077e+02 +1.7272407021836497e+05 +8.9723964861129429e+06 
-2.3000000000000007e+00 -3.4684117260023001e-01 +2.1209511108903193e-03 -1.6618620695144828e-01 -2.7816069569149516e+01 -2.1415127880893178e+02 +1.7301210566543302e+05 +8.9919542066994123e+06 
-2.4000000000000008e+00 -3.4684122401546108e-01 +2.1306634262083443e-03 -1.6547606280354202e-01 -2.7943305771535680e+01 -2.1736755108978218e+02 +1.7312624885838715e+05 +9.0023095797345247e+06 
-2.5000000000000009e+00 -3.4684127724387886e-01 +2.1390580719622848e-03 -1.6478130540570105e-01 -2.8037938277245051e+01 -2.1918512684118573e+02 +1.7307207308529987e+05 +9.0046037432472184e+06 
-2.6000000000000010e+00 -3.4684133208674744e-01 +2.1461498300760209e-03 -1.6409037012911637e-01 -2.8100781493242202e+01 -2.1987830537550613e+02 +1.7285514779703523e+05 +8.9999772228815388e+06 
-2.7000000000000011e+00 -3.4684138834525463e-01 +2.1519534566343339e-03 -1.6339169872670689e-01 -2.8132648893702779e+01 -2.1972128305546335e+02 +1.7248103721219685e+05 +8.9895700607499350e+06 
-2.8000000000000012e+00 -3.4684144582053061e-01 +2.1564836840764663e-03 -1.6267373722249173e-01 -2.8134353046999959e+01 -2.1898819025468634e+02 +1.7195530043711379e+05 +8.9745219764295742e+06 
-2.9000000000000012e+00 -3.4684150431361982e-01 +2.1597552187640769e-03 -1.6192493902764232e-01 -2.8106705516729434e+01 -2.1795303306297473e+02 +1.7128349087844300e+05 +8.9559720868107844e+06 
-3.0000000000000013e+00 -3.4684156362550783e-01 +2.1617827372596532e-03 -1.6113376150982450e-01 -2.8050516712617593e+01 -2.1688975735637442e+02 +1.7047115533142228e+05 +8.9350592003409266e+06 
-3.1000000000000014e+00 -3.4684162355711284e-01 +2.1625808863986597e-03 -1.6028866731179034e-01 -2.7966595861577566e+01 -2.1607222021939268e+02 +1.6952383379501753e+05 +8.9129216662276946e+06 
-3.2000000000000015e+00 -3.4684168390928038e-01 +2.1621642813534269e-03 -1.5937812449973154e-01 -2.7855750915228491e+01 -2.1577418900903422e+02 +1.6844705889830959e+05 +8.8906973689795155e+06 
-3.3000000000000016e+00 -3.4684174448280491e-01 +2.1605475025250139e-03 -1.5839060405071603e-01 -2.7718788425368992e+01 -2.1626938564114823e+02 +1.6724635515178627e+05 +8.8695239222514853e+06 
-3.4000000000000017e+00 -3.4684180507840107e-01 +2.1577450952114793e-03 -1.5731458340975762e-01 -2.7556513500015257e+01 -2.1783141879097920e+02 +1.6592723866238561e+05 +8.8505383421110362e+06 
-3.5000000000000018e+00 -3.4684186549674795e-01 +2.1537715668282225e-03 -1.5613854065985636e-01 -2.7369729688096491e+01 -2.2073389298606347e+02 +1.6449521643876832e+05 +8.8348775511666536e+06 
-3.6000000000000019e+00 -3.4684192553843779e-01 +2.1486413854285842e-03 -1.5485096095724640e-01 -2.7159238902375900e+01 -2.2525028637650357e+02 +1.6295578591368539e+05 +8.8236777958223764e+06 
-3.7000000000000020e+00 -3.4684198500402652e-01 +2.1423689787428437e-03 -1.5344033032468954e-01 -2.6925841352837985e+01 -2.3165406542921755e+02 +1.6131443451578610e+05 +8.8180751734080892e+06 
-3.8000000000000020e+00 -3.4684204369401528e-01 +2.1349687296838928e-03 -1.5189513745699443e-01 -2.6670335389401139e+01 -2.4021865163139344e+02 +1.5957663875499603e+05 +8.8192054706609193e+06 
-3.9000000000000021e+00 -3.4684210140883581e-01 +2.1264549782113481e-03 -1.5020387586306197e-01 -2.6393517511796190e+01 -2.5121737847578549e+02 +1.5774786421999728e+05 +8.8282039491801374e+06 
-4.0000000000000018e+00 -3.4684215794854123e-01 +2.1168419693687471e-03 -1.4835509780880785e-01 -2.6096184695609768e+01 -2.6492276766649127e+02 +1.5583360255242983e+05 +8.8462042423996627e+06 
-4.1000000000000014e+00 -3.4684221308377305e-01 +2.1061382786278695e-03 -1.4634576936760371e-01 -2.5779234922177679e+01 -2.8147216219878538e+02 +1.5384105648156616e+05 +8.8738557811728157e+06 
-4.2000000000000011e+00 -3.4684226654197065e-01 +2.0943663422445481e-03 -1.4419592752098101e-01 -2.5443846418606228e+01 -3.0063575253831050e+02 +1.5177851549404941e+05 +8.9105264483255781e+06 
-4.3000000000000007e+00 -3.4684231804552323e-01 +2.0815588979370032e-03 -1.4193128628379956e-01 -2.5091147834716374e+01 -3.2210455959934006e+02 +1.4965244527143138e+05 +8.9553960477569643e+06 
-4.4000000000000004e+00 -3.4684236731680673e-01 +2.0677486674676305e-03 -1.3957755480644177e-01 -2.4722261629341521e+01 -3.4557031817726613e+02 +1.4746924038384872e+05 +9.0076515935185757e+06 
-4.5000000000000000e+00 -3.4684241407823446e-01 +2.0529684576252160e-03 -1.3716043156829105e-01 -2.4338312409188351e+01 -3.7072500648120916e+02 +1.4523530574630800e+05 +9.0664813521414045e+06 
-4.5999999999999996e+00 -3.4684245805228686e-01 +2.0372511686336026e-03 -1.3470560030484080e-01 -2.3940427161818167e+01 -3.9726092579517535e+02 +1.4295705783971990e+05 +9.1310752270604745e+06 
-4.6999999999999993e+00 -3.4684249896151448e-01 +2.0206297972581574e-03 -1.3223872951836285e-01 -2.3529735341068761e+01 -4.2487070959726123e+02 +1.4064092509626309e+05 +9.2006248025256898e+06 
-4.7999999999999989e+00 -3.4684253652853453e-01 +2.0031374442309284e-03 -1.2978547272989963e-01 -2.3107369063594192e+01 -4.5324732151386542e+02 +1.3829334888643029e+05 +9.2743233437881190e+06 
-4.8999999999999986e+00 -3.4684257047605371e-01 +1.9848073189217101e-03 -1.2737146557017581e-01 -2.2674463245493524e+01 -4.8208410942544543e+02 +1.3592078421856923e+05 +9.3513660507120378e+06 
-4.9999999999999982e+00 -3.4684260052686017e-01 +1.9656727452790528e-03 -1.2502232651265513e-01 -2.2232155757465868e+01 -5.1107479416675818e+02 +1.3352970048915732e+05 +9.4309500135119390e+06 
-5.0999999999999979e+00 -3.4684262640383623e-01 +1.9457671681256470e-03 -1.2276365535896804e-01 -2.1781587604203256e+01 -5.3991349752282883e+02 +1.3112658241778042e+05 +9.5122743446941469e+06 
-5.1999999999999975e+00 -3.4684264782997165e-01 +1.9251241570568884e-03 -1.2062103096901225e-01 -2.1323903021080120e+01 -5.6829478900612844e+02 +1.2871793046243940e+05 +9.5945404111067895e+06 
-5.2999999999999972e+00 -3.4684266452835105e-01 +1.9037774139689637e-03 -1.1862001329431794e-01 -2.0860249688273271e+01 -5.9591364468593156e+02 +1.2631026194987110e+05 +9.6769516349236667e+06 
-5.3999999999999968e+00 -3.4684267622219017e-01 +1.8817607775628497e-03 -1.1678613820910506e-01 -2.0391778851023506e+01 -6.2246554910818304e+02 +1.2391011164825168e+05 +9.7587139865726419e+06 
-5.4999999999999964e+00 -3.4684268263482099e-01 +1.8591082297194699e-03 -1.1514491947761223e-01 -1.9919645492294819e+01 -6.4764645709557067e+02 +1.2152403262980538e+05 +9.8390358035342358e+06 
-5.5999999999999961e+00 -3.4684268348969804e-01 +1.8358539001413663e-03 -1.1372184760069229e-01 -1.9445008461481688e+01 -6.7115281827224646e+02 +1.1915859690792003e+05 +9.9171279150351491e+06 
-5.6999999999999957e+00 -3.4684267851042772e-01 +1.8120320724343720e-03 -1.1254238640562400e-01 -1.8969030637251858e+01 -6.9268163966861880e+02 +1.1682039623977452e+05 +9.9922039339113291e+06 
-5.7999999999999954e+00 -3.4684266742073738e-01 +1.7876771907570593e-03 -1.1163197626895724e-01 -1.8492879115121639e+01 -7.1193042886969306e+02 +1.1451604310218028e+05 +1.0063480000608614e+07 
-5.8999999999999950e+00 -3.4684264994452413e-01 +1.7628238633827836e-03 -1.1101602816357184e-01 -1.8017725296495371e+01 -7.2859730612496674e+02 +1.1225217106895320e+05 +1.0130175312739197e+07 
-5.9999999999999947e+00 -3.4684262580684755e-01 +1.7375065760046511e-03 -1.1071980042920519e-01 -1.7544714350853006e+01 -7.4238067804498576e+02 +1.1003518956507561e+05 +1.0191500432430014e+07 
-6.0999999999999943e+00 -3.4684259491563707e-01 +1.7117653132973610e-03 -1.1075376536160104e-01 -1.7074357399571042e+01 -7.5314186140819845e+02 +1.0786590236930437e+05 +1.0247085223758655e+07 
-6.1999999999999940e+00 -3.4684255776447043e-01 +1.6857043434728876e-03 -1.1109647347455416e-01 -1.6607838929373401e+01 -7.6107826213533167e+02 +1.0574660894666360e+05 +1.0297440841569753e+07 
-6.2999999999999936e+00 -3.4684251498785573e-01 +1.6594644503297015e-03 -1.1172301252746239e-01 -1.6147335602869592e+01 -7.6637736347088924e+02 +1.0368571840371678e+05 +1.0342803754532510e+07 
-6.3999999999999932e+00 -3.4684246722047929e-01 +1.6331870335256754e-03 -1.1260855713200935e-01 -1.5695053120393291e+01 -7.6922319349460076e+02 +1.0169187602162491e+05 +1.0383385025162995e+07 
-6.4999999999999929e+00 -3.4684241509735847e-01 +1.6070133909335852e-03 -1.1372826162663326e-01 -1.5253195244195643e+01 -7.6980000885991979e+02 +9.9773719583042955e+04 +1.0419396413604664e+07 
-6.5999999999999925e+00 -3.4684235925385498e-01 +1.5810847121880188e-03 -1.1505725945990994e-01 -1.4823963661653586e+01 -7.6829229967370441e+02 +9.7939878774925630e+04 +1.0451050384378279e+07 
-6.6999999999999922e+00 -3.4684230032570629e-01 +1.5555420748089646e-03 -1.1657065998938790e-01 -1.4409557920718294e+01 -7.6488484407774331e+02 +9.6198975000721053e+04 +1.0478560349338004e+07 
-6.7999999999999918e+00 -3.4684223894900484e-01 +1.5305264370641556e-03 -1.1824355208851335e-01 -1.4012175271317455e+01 -7.5976263376103384e+02 +9.4559620650082041e+04 +1.0502140302245969e+07 
-6.8999999999999915e+00 -3.4684217576024845e-01 +1.5061786336629278e-03 -1.2005099902494704e-01 -1.3634010585544516e+01 -7.5311096154862832e+02 +9.3030418817332960e+04 +1.0522005207853142e+07 
-6.9999999999999911e+00 -3.4684211139632398e-01 +1.4826393695892863e-03 -1.2196804120328866e-01 -1.3277256227361987e+01 -7.4511536514456793e+02 +9.1619962734245943e+04 +1.0538370727747474e+07 
-7.0999999999999908e+00 -3.4684204649453332e-01 +1.4600492142868122e-03 -1.2396969372637752e-01 -1.2944101936414583e+01 -7.3596166657067272e+02 +9.0336835298534235e+04 +1.0551453389148857e+07 
-7.1999999999999904e+00 -3.4684198169259245e-01 +1.4385485964256749e-03 -1.2603094790427277e-01 -1.2636734716391119e+01 -7.2583593492930822e+02 +8.9189608590902688e+04 +1.0561470389182806e+07 
-7.2999999999999901e+00 -3.4684191762866690e-01 +1.4182777979301147e-03 -1.2812676727326650e-01 -1.2357338717788918e+01 -7.1492455741597678e+02 +8.8186843409191017e+04 +1.0568639919097481e+07 
-7.3999999999999897e+00 -3.4684185494135339e-01 +1.3993769502357106e-03 -1.3023209119573678e-01 -1.2108095169076741e+01 -7.0341416251186183e+02 +8.7337089029852737e+04 +1.0573180781224702e+07 
-7.4999999999999893e+00 -3.4684179426971862e-01 +1.3819860256765991e-03 -1.3232183068294823e-01 -1.1891182182296658e+01 -6.9149169358841777e+02 +8.6648882295153671e+04 +1.0575312722795246e+07 
-7.5999999999999890e+00 -3.4684173625329512e-01 +1.3662448341117434e-03 -1.3437086997328787e-01 -1.1708774697440269e+01 -6.7934437254090983e+02 +8.6130747458107871e+04 +1.0575256250200836e+07 
-7.6999999999999886e+00 -3.4684168153210548e-01 +1.3522930160470119e-03 -1.3635406444800632e-01 -1.1563044337203623e+01 -6.6715973142918779e+02 +8.5791195550564662e+04 +1.0573232757617142e+07 
-7.7999999999999883e+00 -3.4684163074666396e-01 +1.3402700382677201e-03 -1.3824624122300788e-01 -1.1456159321731832e+01 -6.5512559613500855e+02 +8.5638724056897001e+04 +1.0569464439208031e+07 
-7.8999999999999879e+00 -3.4684158453799019e-01 +1.3303151881918416e-03 -1.4002219865482043e-01 -1.1390284357386733e+01 -6.4343008744163774e+02 +8.5681816468561781e+04 +1.0564174273896964e+07 
-7.9999999999999876e+00 -3.4684154354751107e-01 +1.3225679614300759e-03 -1.4165670307140163e-01 -1.1367611296351690e+01 -6.3226442311562619e+02 +8.5929118488435546e+04 +1.0557604009831704e+07 
-8.0999999999999872e+00 -3.4684150828626598e-01 +1.3171471720013024e-03 -1.4313320470570137e-01 -1.1390277837985030e+01 -6.2173107882069201e+02 +8.6389784752129388e+04 +1.0549743071840756e+07 
-8.1999999999999869e+00 -3.4684147868448567e-01 +1.3140172855821599e-03 -1.4445373472294293e-01 -1.1457348807620608e+01 -6.1179620195195753e+02 +8.7058498830840472e+04 +1.0540347656158853e+07 
-8.2999999999999865e+00 -3.4684145449700760e-01 +1.3130583011401631e-03 -1.4561769404897063e-01 -1.1565922806747293e+01 -6.0255928451274065e+02 +8.7919985879344211e+04 +1.0529945674871096e+07 
-8.3999999999999861e+00 -3.4684143547928042e-01 +1.3141482925515813e-03 -1.4662409238951274e-01 -1.1713038327835438e+01 -5.9412983742303879e+02 +8.8958629285434188e+04 +1.0519118300817460e+07 
-8.4999999999999858e+00 -3.4684142138636426e-01 +1.3171653077018494e-03 -1.4747198453037066e-01 -1.1895732318736561e+01 -5.8661657187705509e+02 +9.0158801843024572e+04 +1.0508443132890673e+07 
-8.5999999999999854e+00 -3.4684141197292478e-01 +1.3219873738757773e-03 -1.4816047101822921e-01 -1.2111040313477751e+01 -5.8012738795183304e+02 +9.1504866450563088e+04 +1.0498494148070019e+07 
-8.6999999999999851e+00 -3.4684140699321475e-01 +1.3284924939209798e-03 -1.4868869996634515e-01 -1.2355996292793657e+01 -5.7476934367556657e+02 +9.2981175237902586e+04 +1.0489841565231381e+07 
-8.7999999999999847e+00 -3.4684140620104553e-01 +1.3365586490220068e-03 -1.4905587040224466e-01 -1.2627632725090573e+01 -5.7064859578746609e+02 +9.4572069708507217e+04 +1.0483051579104638e+07 
-8.8999999999999844e+00 -3.4684140934979574e-01 +1.3460637971602818e-03 -1.4926123095161783e-01 -1.2922980498576054e+01 -5.6787042658375276e+02 +9.6261880292963862e+04 +1.0478686493590489e+07 
-8.9999999999999840e+00 -3.4684141619238351e-01 +1.3568858735297580e-03 -1.4930408300893513e-01 -1.3239068898100086e+01 -5.6653918694384345e+02 +9.8034926133337445e+04 +1.0477304463019053e+07 
-9.0999999999999837e+00 -3.4684142648124239e-01 +1.3689027914478987e-03 -1.4918378334002200e-01 -1.3572925600829969e+01 -5.6675825103549801e+02 +9.9875514983140820e+04 +1.0479459290281408e+07 
-9.1999999999999833e+00 -3.4684143996832628e-01 +1.3819924402599533e-03 -1.4889974349234361e-01 -1.3921576589912547e+01 -5.6863002882293006e+02 +1.0176794265321338e+05 +1.0485700492256574e+07 
-9.2999999999999829e+00 -3.4684145640506797e-01 +1.3960326890182760e-03 -1.4845143435844479e-01 -1.4282046219603700e+01 -5.7225588468918306e+02 +1.0369649328276650e+05 +1.0496572930305906e+07 
-9.3999999999999826e+00 -3.4684147554239281e-01 +1.4109013830388647e-03 -1.4783838442528779e-01 -1.4651357094047608e+01 -5.7773617166971542e+02 +1.0564543859612082e+05 +1.0512616976608615e+07 
-9.4999999999999822e+00 -3.4684149713067708e-01 +1.4264763451516476e-03 -1.4706018463692172e-01 -1.5026530069401067e+01 -5.8517014343757978e+02 +1.0759903782962062e+05 +1.0534368112090185e+07 
-9.5999999999999819e+00 -3.4684152091974940e-01 +1.4426353778256725e-03 -1.4611648779658182e-01 -1.5404584284441075e+01 -5.9465596931523646e+02 +1.0954153783856046e+05 +1.0562357007982917e+07 
-9.6999999999999815e+00 -3.4684154665886757e-01 +1.4592562600649454e-03 -1.4500701149713024e-01 -1.5782537038697377e+01 -6.0629067987514622e+02 +1.1145717231819301e+05 +1.0597109275441969e+07 
-9.7999999999999812e+00 -3.4684157409670574e-01 +1.4762167495373222e-03 -1.4373153921691928e-01 -1.6157403826396706e+01 -6.2017015055447905e+02 +1.1333016193250331e+05 +1.0639145400244797e+07 
-9.8999999999999808e+00 -3.4684160298133765e-01 +1.4933945829412910e-03 -1.4228992209855587e-01 -1.6526198313533488e+01 -6.3638907145420444e+02 +1.1514471410822694e+05 +1.0688980612605453e+07 
-9.9999999999999805e+00 -3.4684163305637350e-01 +1.5106672279598407e-03 -1.4068271463521587e-01 -1.6885978463904276e+01 -6.5503352446795066e+02 +1.1688560380886757e+05 +1.0747122327160534e+07 
-1.0099999999999980e+01 -3.4684166402133254e-01 +1.5279005571950013e-03 -1.3892033268645393e-01 -1.7233966952644934e+01 -6.7603785707163411e+02 +1.1854048412325812e+05 +1.0813560728641788e+07 
