# multipoles
# s[mm] polynom_b[n=0][T/m^n] polynom_b[n=1][T/m^n] polynom_b[n=2][T/m^n] polynom_b[n=3][T/m^n] polynom_b[n=4][T/m^n] polynom_b[n=5][T/m^n] polynom_b[n=6][T/m^n] 
+0.0000000000000000e+00 -2.6012629695210282e-01 +6.7404861627972214e-04 +2.4449806089719507e-02 +1.8262904233081709e+00 +1.8623890144506474e+03 +2.4201218448362029e+04 -8.7497817970831227e+06 
-1.0000000000000001e-01 -2.6012630478752702e-01 +6.7974524973353500e-04 +2.2746651046218373e-02 +1.7300217546402110e+00 +1.8919762606238878e+03 +2.4700616511365712e+04 -8.8787671851979606e+06 
-2.0000000000000001e-01 -2.6012631183910073e-01 +6.8572539730636900e-04 +2.0871527074582029e-02 +1.6293140509401070e+00 +1.9236165836943551e+03 +2.5211491161137707e+04 -9.0149724034682121e+06 
-3.0000000000000004e-01 -2.6012631801474156e-01 +6.9190729114551261e-04 +1.8833830615016370e-02 +1.5261431906072391e+00 +1.9571838064139058e+03 +2.5724032889401442e+04 -9.1579449342430569e+06 
-4.0000000000000002e-01 -2.6012632322237317e-01 +6.9820917520843509e-04 +1.6642957941710133e-02 +1.4224848453338832e+00 +1.9925517641008073e+03 +2.6228432921684853e+04 -9.3072323388386946e+06 
-5.0000000000000000e-01 -2.6012632736989499e-01 +7.0454930160559202e-04 +1.4308301512893496e-02 +1.3203145753375316e+00 +2.0295943704806537e+03 +2.6714882718903838e+04 -9.4623825581582021e+06 
-5.9999999999999998e-01 -2.6012633036519356e-01 +7.1084593385725247e-04 +1.1839251549181549e-02 +1.2216077229875080e+00 +2.0681855853080838e+03 +2.7173574647094105e+04 -9.6229437509999536e+06 
-6.9999999999999996e-01 -2.6012633211612157e-01 +7.1701734147797396e-04 +9.2451939448750173e-03 +1.1283395666665674e+00 +2.1081994486367048e+03 +2.7594701119345551e+04 -9.7884644409253653e+06 
-7.9999999999999993e-01 -2.6012633253049416e-01 +7.2298180042316247e-04 +6.5355098209066084e-03 +1.0424852968858365e+00 +2.1495100874672307e+03 +2.7968454783348738e+04 -9.9584935404578876e+06 
-8.9999999999999991e-01 -2.6012633151607695e-01 +7.2865759282952816e-04 +3.7195744246105202e-03 +9.6602001448965547e-01 +2.1919917318256234e+03 +2.8285028583083509e+04 -1.0132580413028609e+07 
-9.9999999999999989e-01 -2.6012632898058391e-01 +7.3396300408925391e-04 +8.0675709217883896e-04 +9.0091880891416209e-01 +2.2355187127500149e+03 +2.8534615343336020e+04 -1.0310274854324045e+07 
-1.0999999999999999e+00 -2.6012632483165432e-01 +7.3881632276735548e-04 -2.1935813176372984e-03 +8.4915675168527593e-01 +2.2799655063611440e+03 +2.8707407855780446e+04 -1.0491127286802463e+07 
-1.2000000000000000e+00 -2.6012631897686017e-01 +7.4313583885903033e-04 -5.2720873347009657e-03 +8.1270893591697668e-01 +2.3252067109923591e+03 +2.8793598701866933e+04 -1.0674688643955505e+07 
-1.3000000000000000e+00 -2.6012631132368552e-01 +7.4683984335843399e-04 -8.4194170684057466e-03 +7.9355048410730034e-01 +2.3711170840077280e+03 +2.8783380243469725e+04 -1.0860510530043408e+07 
-1.4000000000000001e+00 -2.6012630177952151e-01 +7.4984662583554742e-04 -1.1626236661058350e-02 +7.9365660768027324e-01 +2.4175715475694574e+03 +2.8666944329122562e+04 -1.1048145238178680e+07 
-1.5000000000000002e+00 -2.6012629025165707e-01 +7.5207447477294658e-04 -1.4883223107326666e-02 +8.1500258769690759e-01 +2.4644451999352341e+03 +2.8434482455112335e+04 -1.1237145790617775e+07 
-1.6000000000000003e+00 -2.6012627664727905e-01 +7.5344167428493018e-04 -1.8181064036880204e-02 +8.5956386592537048e-01 +2.5116133088581978e+03 +2.8076185270468191e+04 -1.1427065899688676e+07 
-1.7000000000000004e+00 -2.6012626087343893e-01 +7.5386650536744479e-04 -2.1510461640180022e-02 +9.2931599422805411e-01 +2.5589513814692032e+03 +2.7582242932531630e+04 -1.1617460283440558e+07 
-1.8000000000000005e+00 -2.6012624283707025e-01 +7.5326724246342809e-04 -2.4862130046427212e-02 +1.0262347296053502e+00 +2.6063351111649554e+03 +2.6942844591192988e+04 -1.1807884405007325e+07 
-1.9000000000000006e+00 -2.6012622244496020e-01 +7.5156215446321912e-04 -2.8226798741275962e-02 +1.1522959950125931e+00 +2.6536404387332182e+03 +2.6148178665040374e+04 -1.1997894749023724e+07 
-2.0000000000000004e+00 -2.6012619960377231e-01 +7.4866951974407198e-04 -3.1595207187762361e-02 +1.3094752000066336e+00 +2.7007433981244289e+03 +2.5188436366334459e+04 -1.2187048020697527e+07 
-2.1000000000000005e+00 -2.6012617428114126e-01 +7.4454631615462040e-04 -3.4955359043225241e-02 +1.4987156791922835e+00 +2.7474663495769159e+03 +2.4059164276668602e+04 -1.2374638041395532e+07 
-2.2000000000000006e+00 -2.6012614672243889e-01 +7.3930778183130881e-04 -3.8287655620728778e-02 +1.7169669652949882e+00 +2.7935311305374962e+03 +2.2776255861372349e+04 -1.2559519102188691e+07 
-2.3000000000000007e+00 -2.6012611725103318e-01 +7.3311197734541613e-04 -4.1571523584710439e-02 +1.9601372400700317e+00 +2.8386630820767450e+03 +2.1360801596464255e+04 -1.2740584175953375e+07 
-2.4000000000000008e+00 -2.6012608619036842e-01 +7.2611695177121009e-04 -4.4786385148828052e-02 +2.2241349287676013e+00 +2.8825875166008245e+03 +1.9833889934672487e+04 -1.2916726197956957e+07 
-2.5000000000000009e+00 -2.6012605386400472e-01 +7.1848072571548279e-04 -4.7911650904201131e-02 +2.5048691342249207e+00 +2.9250295715916641e+03 +1.8216605748341313e+04 -1.3086837425820280e+07 
-2.6000000000000010e+00 -2.6012602059563311e-01 +7.1036128745356210e-04 -5.0926718027068933e-02 +2.7982497331875051e+00 +2.9657141808976116e+03 +1.6530029797776650e+04 -1.3249809322679790e+07 
-2.7000000000000011e+00 -2.6012598670907922e-01 +7.0191659202018734e-04 -5.3810970387893085e-02 +3.1001873871999654e+00 +3.0043660829013679e+03 +1.4795238690553997e+04 -1.3404532616041103e+07 
-2.8000000000000012e+00 -2.6012595252834292e-01 +6.9330455595979182e-04 -5.6543773937954248e-02 +3.4065936699658961e+00 +3.0407097406367570e+03 +1.3033304200626701e+04 -1.3549896945486965e+07 
-2.9000000000000012e+00 -2.6012591837760540e-01 +6.8468305817337427e-04 -5.9104476307576106e-02 +3.7133810339901396e+00 +3.0744693402451753e+03 +1.1265293461584515e+04 -1.3684790875916541e+07 
-3.0000000000000013e+00 -2.6012588458124641e-01 +6.7620993357154168e-04 -6.1472404876118915e-02 +4.0164629669515772e+00 +3.1053687599911814e+03 +9.5122681256245396e+03 -1.3808101770590631e+07 
-3.1000000000000014e+00 -2.6012585146386696e-01 +6.6804297341696800e-04 -6.3626864351508855e-02 +4.3117539716399325e+00 +3.1331315308495818e+03 +7.7952844871401712e+03 -1.3918715626715003e+07 
-3.2000000000000015e+00 -2.6012581935030266e-01 +6.6033992221284225e-04 -6.5547135725289599e-02 +4.5951696303139196e+00 +3.1574808244941469e+03 +6.1353931655945307e+03 -1.4015517043662947e+07 
-3.3000000000000016e+00 -2.6012578856565455e-01 +6.5325847266179109e-04 -6.7212472464696735e-02 +4.8626267416336448e+00 +3.1781393854549624e+03 +4.5536383179865352e+03 -1.4097388919273602e+07 
-3.4000000000000017e+00 -2.6012575943529537e-01 +6.4695626640586348e-04 -6.8602100485301631e-02 +5.1100432733916774e+00 +3.1948295392266805e+03 +3.0710579706609492e+03 -1.4163212514701916e+07 
-3.5000000000000018e+00 -2.6012573228487679e-01 +6.4159088919923154e-04 -6.9695217294733991e-02 +5.3333384894152163e+00 +3.2072731801944428e+03 +1.7086833003252816e+03 -1.4211867413901208e+07 
-3.6000000000000019e+00 -2.6012570744038310e-01 +6.3731986909190317e-04 -7.0470985821307258e-02 +5.5284329800066399e+00 +3.2151916619141230e+03 +4.8753850314593319e+02 -1.4242231028053293e+07 
-3.7000000000000020e+00 -2.6012568522811019e-01 +6.3430067299759024e-04 -7.0908537510576575e-02 +5.6912487472532085e+00 +3.2183058627830251e+03 -5.7135967830205652e+02 -1.4253178930167342e+07 
-3.8000000000000020e+00 -2.6012566597471765e-01 +6.3269070554426135e-04 -7.0986966113342612e-02 +5.8177092168274793e+00 +3.2163360741436968e+03 -1.4470019797691409e+03 -1.4243584345249638e+07 
-3.9000000000000021e+00 -2.6012565000721960e-01 +6.3264730464346851e-04 -7.0685329152476745e-02 +5.9037393528453315e+00 +3.2090020338158329e+03 -2.1183872601245512e+03 -1.4212318329642480e+07 
-4.0000000000000018e+00 -2.6012563765286445e-01 +6.3432754434294373e-04 -6.9982696550291906e-02 +5.9452710248425982e+00 +3.1960240278383462e+03 -2.5645538868595359e+03 -1.4158255539552629e+07 
-4.1000000000000014e+00 -2.6012562916938770e-01 +6.3782747343557654e-04 -6.8870015221341535e-02 +5.9396305450948255e+00 +3.1773336789386603e+03 -2.7715681009011050e+03 -1.4081225424766503e+07 
-4.2000000000000011e+00 -2.6012562445740084e-01 +6.4304861493937049e-04 -6.7374771265687056e-02 +5.8889837852039033e+00 +3.1534050779092740e+03 -2.7498290238118129e+03 -1.3983317982045639e+07 
-4.3000000000000007e+00 -2.6012562330404254e-01 +6.4984542531896247e-04 -6.5532107591599414e-02 +5.7968567882081459e+00 +3.1247862737874107e+03 -2.5164117563140981e+03 -1.3866872009414168e+07 
-4.4000000000000004e+00 -2.6012562549634116e-01 +6.5807227746934589e-04 -6.3377156842675308e-02 +5.6667797296565192e+00 +3.0920245896862971e+03 -2.0883938542078695e+03 -1.3734223487583596e+07 
-4.5000000000000000e+00 -2.6012563082115708e-01 +6.6758358677978917e-04 -6.0945066020316324e-02 +5.5022815557593088e+00 +3.0556675343001843e+03 -1.4828455747392229e+03 -1.3587709022303397e+07 
-4.5999999999999996e+00 -2.6012563906516945e-01 +6.7823381772517304e-04 -5.8270997709622900e-02 +5.3068897998808691e+00 +3.0162628176434714e+03 -7.1682882114645736e+02 -1.3429665895555513e+07 
-4.6999999999999993e+00 -2.6012565001486099e-01 +6.8987748489312899e-04 -5.5390131360926090e-02 +5.0841305665461665e+00 +2.9743583674400784e+03 +1.9260292638766231e+02 -1.3262432119142104e+07 
-4.7999999999999989e+00 -2.6012566345649935e-01 +7.0236915878312293e-04 -5.2337665399213952e-02 +4.8375283681839569e+00 +2.9305023638082635e+03 +1.2284055537728839e+03 -1.3088346581494384e+07 
-4.8999999999999986e+00 -2.6012567917612539e-01 +7.1556346905469624e-04 -4.9148817773931035e-02 +4.5706060452610489e+00 +2.8852432398240171e+03 +2.3735447508665693e+03 -1.2909749021695677e+07 
-4.9999999999999982e+00 -2.6012569695953702e-01 +7.2931510994091642e-04 -4.5858827795009313e-02 +4.2868846163922711e+00 +2.8391297111118556e+03 +3.6109968697644272e+03 -1.2728980152330607e+07 
-5.0999999999999979e+00 -2.6012571659227368e-01 +7.4347884230060437e-04 -4.2502957406407624e-02 +3.9898832267547113e+00 +2.7927107914396938e+03 +4.9237492207738178e+03 -1.2548381707321774e+07 
-5.1999999999999975e+00 -2.6012573785960635e-01 +7.5790949852327244e-04 -3.9116492022390294e-02 +3.6831190212693992e+00 +2.7465358028783367e+03 +6.2948007701796732e+03 -1.2370296472932242e+07 
-5.2999999999999972e+00 -2.6012576054650349e-01 +7.7246198729377560e-04 -3.5734744233192318e-02 +3.3701070109058717e+00 +2.7011544368704053e+03 +7.7071629189110427e+03 -1.2197068547700236e+07 
-5.3999999999999968e+00 -2.6012578443764262e-01 +7.8699129651641766e-04 -3.2393051872745729e-02 +3.0543600007235385e+00 +2.6571167121948515e+03 +9.1438598957612794e+03 -1.2031043127993660e+07 
-5.4999999999999964e+00 -2.6012580931737622e-01 +8.0135249714805218e-04 -2.9126781786077107e-02 +2.7393884881542006e+00 +2.6149730380251726e+03 +1.0587929333078737e+04 -1.1874566779817890e+07 
-5.5999999999999961e+00 -2.6012583496972641e-01 +8.1540074916506666e-04 -2.5971329911188789e-02 +2.4287004980493734e+00 +2.5752742084522893e+03 +1.2022423210092797e+04 -1.1729987392112413e+07 
-5.6999999999999957e+00 -2.6012586117836034e-01 +8.2899130381900072e-04 -2.2962123943364068e-02 +2.1258015294874104e+00 +2.5385714456043524e+03 +1.3430408142553559e+04 -1.1599654357671084e+07 
-5.7999999999999954e+00 -2.6012588772658191e-01 +8.4197950742524968e-04 -2.0134623810234401e-02 +1.8341944575203828e+00 +2.5054164021396614e+03 +1.4794965930213639e+04 -1.1485918565034291e+07 
-5.8999999999999950e+00 -2.6012591439731902e-01 +8.5422080762659325e-04 -1.7524322833721660e-02 +1.5573793558595688e+00 +2.4763611751494086e+03 +1.6099194583041535e+04 -1.1391132439484688e+07 
-5.9999999999999947e+00 -2.6012594097388358e-01 +8.6557137701534015e-04 -1.5166536250758079e-02 +1.2988414460018793e+00 +2.4519542084276450e+03 +1.7326251523812818e+04 -1.1317631838254781e+07 
-6.0999999999999943e+00 -2.6012596725804338e-01 +8.7594768656216527e-04 -1.3083157159093521e-02 +1.0608672494919498e+00 +2.4324900497790745e+03 +1.8464646639380553e+04 -1.1266617494673301e+07 
-6.1999999999999940e+00 -2.6012599315587337e-01 +8.8538450416625466e-04 -1.1263883676071744e-02 +8.4300620314228703e-01 +2.4177072991411019e+03 +1.9515754931024323e+04 -1.1236843246814594e+07 
-6.2999999999999936e+00 -2.6012601861755930e-01 +8.9392941109695293e-04 -9.6911167377887446e-03 +6.4429410581865276e-01 +2.4072452468121501e+03 +2.0482982132058965e+04 -1.1226616851372143e+07 
-6.3999999999999932e+00 -2.6012604359329283e-01 +9.0162992487484829e-04 -8.3472555570225961e-03 +4.6376734361724836e-01 +2.4007437612919962e+03 +2.1369657012459837e+04 -1.1234243980939923e+07 
-6.4999999999999929e+00 -2.6012606803329480e-01 +9.0853353793541561e-04 -7.2147010458230680e-03 +3.0046349692033014e-01 +2.3978428218220315e+03 +2.2179100013868916e+04 -1.1258031037335353e+07 
-6.5999999999999925e+00 -2.6012609188781960e-01 +9.1468771740899318e-04 -6.2758557778769966e-03 +1.5342136883915228e-01 +2.3981825230365894e+03 +2.2914623018717895e+04 -1.1296285186922383e+07 
-6.6999999999999922e+00 -2.6012611510716360e-01 +9.2013990242205044e-04 -5.5131233493392441e-03 +2.1681080801462339e-02 +2.4014030676347502e+03 +2.3579528742300739e+04 -1.1347314339051252e+07 
-6.7999999999999918e+00 -2.6012613764165077e-01 +9.2493750193714779e-04 -4.9089101729592266e-03 -9.5715844615504947e-02 +2.4071448025161785e+03 +2.4177110190509469e+04 -1.1409427321810752e+07 
-6.8999999999999915e+00 -2.6012615944166356e-01 +9.2912789533123469e-04 -4.4456223773471195e-03 -1.9972648110198338e-01 +2.4150481675894162e+03 +2.4710650583435367e+04 -1.1480933660592612e+07 
-6.9999999999999911e+00 -2.6012618045761210e-01 +9.3275843028698302e-04 -4.1056695034731062e-03 -2.9130642425176023e-01 +2.4247537663848198e+03 +2.5183422881946408e+04 -1.1560143912702233e+07 
-7.0999999999999908e+00 -2.6012620063997249e-01 +9.3587641931051273e-04 -3.8714604004718269e-03 -3.7140966470654679e-01 +2.4359022956181288e+03 +2.5598688978015387e+04 -1.1645369354265414e+07 
-7.1999999999999904e+00 -2.6012621993925622e-01 +9.3852914087878337e-04 -3.7254071741684787e-03 -4.4098860735732603e-01 +2.4481346220141213e+03 +2.5959699757230948e+04 -1.1734922347476838e+07 
-7.2999999999999901e+00 -2.6012623830604070e-01 +9.4076383632293967e-04 -3.6499217862310494e-03 -5.0099396403676522e-01 +2.4610917242991241e+03 +2.6269694426309059e+04 -1.1827116084830509e+07 
-7.3999999999999897e+00 -2.6012625569095382e-01 +9.4262770932870452e-04 -3.6274182241558587e-03 -5.5237471717996478e-01 +2.4744147360795346e+03 +2.6531900235871850e+04 -1.1920264794444790e+07 
-7.4999999999999893e+00 -2.6012627204468936e-01 +9.4416792255888236e-04 -3.6403109542045551e-03 -5.9607800263706645e-01 +2.4877449235355148e+03 +2.6749531742332889e+04 -1.2012683655000653e+07 
-7.5999999999999890e+00 -2.6012628731800030e-01 +9.4543159998867912e-04 -3.6710160874806217e-03 -6.3304916633050179e-01 +2.5007237095951700e+03 +2.6925791100748418e+04 -1.2102688913657052e+07 
-7.6999999999999886e+00 -2.6012630146171167e-01 +9.4646582104872842e-04 -3.7019500265063053e-03 -6.6423156798475891e-01 +2.5129926536859602e+03 +2.7063866848870584e+04 -1.2188597805290416e+07 
-7.7999999999999883e+00 -2.6012631442670414e-01 +9.4731762127925898e-04 -3.7155318684490711e-03 -6.9056658690764772e-01 +2.5241935011551141e+03 +2.7166933898861043e+04 -1.2268728796093915e+07 
-7.8999999999999879e+00 -2.6012632616394682e-01 +9.4803399109741294e-04 -3.6941797131586507e-03 -7.1299356603124431e-01 +2.5339681182225718e+03 +2.7238153152170271e+04 -1.2341401288813105e+07 
-7.9999999999999876e+00 -2.6012633662216839e-01 +9.4866115179594870e-04 -3.6207679140473578e-03 -7.3245135510047066e-01 +2.5419661353534402e+03 +2.7280865679349372e+04 -1.2404955971503589e+07 
-8.0999999999999872e+00 -2.6012634575336940e-01 +9.4921643043975688e-04 -3.4873241429723171e-03 -7.4947389960628386e-01 +2.5480121240571016e+03 +2.7298156136732057e+04 -1.2458429465742929e+07 
-8.1999999999999869e+00 -2.6012635365976233e-01 +9.4970595367731660e-04 -3.2927182500090257e-03 -7.6455845219140861e-01 +2.5521042988150493e+03 +2.7294358925418965e+04 -1.2501687104573473e+07 
-8.2999999999999865e+00 -2.6012636050073457e-01 +9.5015219082118763e-04 -3.0359551211853407e-03 -7.7861395457063609e-01 +2.5542632288117543e+03 +2.7276666522386622e+04 -1.2534787662891934e+07 
-8.3999999999999861e+00 -2.6012636643612091e-01 +9.5057816101135799e-04 -2.7160439258387802e-03 -7.9257383255819502e-01 +2.5545104904563682e+03 +2.7252517990090237e+04 -1.2557805174078368e+07 
-8.4999999999999858e+00 -2.6012637162599134e-01 +9.5100690003929993e-04 -2.3319562792083015e-03 -8.0737250096675395e-01 +2.5528668454719600e+03 +2.7229358777707243e+04 -1.2570809621142883e+07 
-8.5999999999999854e+00 -2.6012637623063645e-01 +9.5146145919311139e-04 -1.8826278395657182e-03 -8.2394534969113387e-01 +2.5493522673979742e+03 +2.7214640679309883e+04 -1.2573867053545935e+07 
-8.6999999999999851e+00 -2.6012638041058594e-01 +9.5196490760225498e-04 -1.3669554387215502e-03 -8.4322882884623451e-01 +2.5439858822293031e+03 +2.7215822345564287e+04 -1.2567039296465250e+07 
-8.7999999999999847e+00 -2.6012638432660462e-01 +9.5254033097877107e-04 -7.8379769359239340e-04 -8.6616042883565048e-01 +2.5367859792982208e+03 +2.7240369194647610e+04 -1.2550384002337158e+07 
-8.8999999999999844e+00 -2.6012638813970990e-01 +9.5321083285353876e-04 -1.3197229592811500e-04 -8.9367873877419668e-01 +2.5277699547507768e+03 +2.7295753790604089e+04 -1.2523954372907536e+07 
-8.9999999999999840e+00 -2.6012639201117033e-01 +9.5399953472492891e-04 +5.8974400323198869e-04 -9.2672346286758644e-01 +2.5169543080671306e+03 +2.7389455946567305e+04 -1.2487799136104541e+07 
-9.0999999999999837e+00 -2.6012639610251859e-01 +9.5492957650950428e-04 +1.3826172499130096e-03 -9.6623545621158957e-01 +2.5043546044154727e+03 +2.7528962973161284e+04 -1.2441962364582498e+07 
-9.1999999999999833e+00 -2.6012640057555281e-01 +9.5602411730697401e-04 +2.2479564821994646e-03 -1.0131567608806367e+00 +2.4899854687007382e+03 +2.7721769901600863e+04 -1.2386483443965778e+07 
-9.2999999999999829e+00 -2.6012640559235617e-01 +9.5730633543981861e-04 +3.1871169623991259e-03 -1.0684306262473717e+00 +2.4738605172513548e+03 +2.7975379631750697e+04 -1.2321396733183224e+07 
-9.3999999999999826e+00 -2.6012641131528297e-01 +9.5879942832375730e-04 +4.2014982034512529e-03 -1.1330015224514549e+00 +2.4559923963061315e+03 +2.8297303033978649e+04 -1.2246731752701579e+07 
-9.4999999999999822e+00 -2.6012641790698293e-01 +9.6052661323100662e-04 +5.2925475108269249e-03 -1.2078151816111959e+00 +2.4363927086710896e+03 +2.8695059216526155e+04 -1.2162512822844410e+07 
-9.5999999999999819e+00 -2.6012642553039622e-01 +9.6251112944163492e-04 +6.4617596320905631e-03 -1.2938186744659808e+00 +2.4150720182873374e+03 +2.9176175983186717e+04 -1.2068759083395941e+07 
-9.6999999999999815e+00 -2.6012643434877236e-01 +9.6477623551430335e-04 +7.7106791697441760e-03 -1.3919603502275184e+00 +2.3920398012464061e+03 +2.9748189516857376e+04 -1.1965484254943872e+07 
-9.7999999999999812e+00 -2.6012644452567074e-01 +9.6734521108458556e-04 +9.0409010652583374e-03 -1.5031899051310487e+00 +2.3673044338429727e+03 +3.0418644794324933e+04 -1.1852696578632180e+07 
-9.8999999999999808e+00 -2.6012645622495834e-01 +9.7024135767259125e-04 +1.0454070714754640e-02 -1.6284584231987054e+00 +2.3408731847462905e+03 +3.1195095844811945e+04 -1.1730398766188605e+07 
-9.9999999999999805e+00 -2.6012646961585295e-01 +9.7348766301267556e-04 +1.1952635148286796e-02 -1.7686288092164957e+00 +2.3127455574264145e+03 +3.2084102467979559e+04 -1.1598608297471983e+07 
-1.0099999999999980e+01 -2.6012648484718109e-01 +9.7711442801080265e-04 +1.3545856151843954e-02 -1.9241114538770425e+00 +2.2828256684551889e+03 +3.3086872615688757e+04 -1.1457149330332777e+07 
