# multipoles
# s[mm] polynom_b[n=0][T/m^n] polynom_b[n=1][T/m^n] polynom_b[n=2][T/m^n] polynom_b[n=3][T/m^n] polynom_b[n=4][T/m^n] polynom_b[n=5][T/m^n] polynom_b[n=6][T/m^n] 
+0.0000000000000000e+00 -3.9030444586705720e-01 -3.1677856701720274e-05 +4.1332153620199141e-01 +3.9874425436217578e+01 -3.2990496649140405e+03 -1.7477733337522965e+05 +1.2120303971642125e+07 
-1.0000000000000001e-01 -3.9030447778437882e-01 -4.4513754818269648e-05 +4.1540389047091458e-01 +4.0146050181063245e+01 -3.3320350467540011e+03 -1.7596209812925910e+05 +1.2254477862158895e+07 
-2.0000000000000001e-01 -3.9030450621977963e-01 -5.7515039516209736e-05 +4.1715247932507105e-01 +4.0402814892809509e+01 -3.3616527853694392e+03 -1.7701422036743123e+05 +1.2381188534417525e+07 
-3.0000000000000004e-01 -3.9030453129764131e-01 -7.0612503401307138e-05 +4.1858168482016395e-01 +4.0644846917164379e+01 -3.3880792403409951e+03 -1.7794035429238336e+05 +1.2500875026008928e+07 
-4.0000000000000002e-01 -3.9030455314236856e-01 -8.3736899430033394e-05 +4.1970589661704566e-01 +4.0872272634579581e+01 -3.4114909457664835e+03 -1.7874714948496062e+05 +1.2613977252890026e+07 
-5.0000000000000000e-01 -3.9030457187841661e-01 -9.6818943688367298e-05 +4.2053951424174829e-01 +4.1085217545123683e+01 -3.4320646430893657e+03 -1.7944125136585225e+05 +1.2720936143301465e+07 
-5.9999999999999998e-01 -3.9030458763029158e-01 -1.0978932055850678e-04 +4.2109694586100649e-01 +4.1283806438864822e+01 -3.4499772484559385e+03 -1.8002930219584901e+05 +1.2822193463507038e+07 
-6.9999999999999996e-01 -3.9030460052251770e-01 -1.2257868579797806e-04 +4.2139260285517188e-01 +4.1468163476455565e+01 -3.4654057388997117e+03 -1.8051794147544628e+05 +1.2918191255701203e+07 
-7.9999999999999993e-01 -3.9030461067966848e-01 -1.3511767139656039e-04 +4.2144090289934488e-01 +4.1638412350000586e+01 -3.4785272035963258e+03 -1.8091380688687760e+05 +1.3009372066207323e+07 
-8.9999999999999991e-01 -3.9030461822635371e-01 -1.4733688996245497e-04 +4.2125626674600503e-01 +4.1794676413761408e+01 -3.4895187706389952e+03 -1.8122353502064123e+05 +1.3096178572231712e+07 
-9.9999999999999989e-01 -3.9030462328721766e-01 -1.5916693872865040e-04 +4.2085311712129503e-01 +4.1937078805933133e+01 -3.4985575790971043e+03 -1.8145376204902344e+05 +1.3179053436305666e+07 
-1.0999999999999999e+00 -3.9030462598692406e-01 -1.7053840350262332e-04 +4.2024587535284735e-01 +4.2065742578360961e+01 -3.5058207026481173e+03 -1.8161112447995477e+05 +1.3258438916904951e+07 
-1.2000000000000000e+00 -3.9030462645018132e-01 -1.8138186317977699e-04 +4.1944896354567779e-01 +4.2180790826067017e+01 -3.5114851838711252e+03 -1.8170225985735867e+05 +1.3334777017921034e+07 
-1.3000000000000000e+00 -3.9030462480173267e-01 -1.9162789344537136e-04 +4.1847680217255262e-01 +4.2282346812769866e+01 -3.5157279771656131e+03 -1.8173380749756828e+05 +1.3408509192267371e+07 
-1.4000000000000001e+00 -3.9030462116633430e-01 -2.0120707296090293e-04 +4.1734380601472998e-01 +4.2370534145213242e+01 -3.5187258634887289e+03 -1.8171240943783437e+05 +1.3480075923906794e+07 
-1.5000000000000002e+00 -3.9030461566877478e-01 -2.1004998442031769e-04 +4.1606438538425572e-01 +4.2445476826529749e+01 -3.5206554622324202e+03 -1.8164471076827872e+05 +1.3549916757114178e+07 
-1.6000000000000003e+00 -3.9030460843386733e-01 -2.1808722042695596e-04 +4.1465294411468223e-01 +4.2507299419880383e+01 -3.5216931855734961e+03 -1.8153736051687889e+05 +1.3618470067147654e+07 
-1.7000000000000004e+00 -3.9030459958645397e-01 -2.2524938883186854e-04 +4.1312387882903989e-01 +4.2556127224187506e+01 -3.5220152137466598e+03 -1.8139701267903845e+05 +1.3686172918766353e+07 
-1.8000000000000005e+00 -3.9030458925139255e-01 -2.3146711536445818e-04 +4.1149157606417508e-01 +4.2592086347430630e+01 -3.5217974313477707e+03 -1.8123032659332626e+05 +1.3753460746343102e+07 
-1.9000000000000006e+00 -3.9030457755356779e-01 -2.3667104799509399e-04 +4.0977041241343531e-01 +4.2615303848016424e+01 -3.5212154192605790e+03 -1.8104396775536489e+05 +1.3820767292142997e+07 
-2.0000000000000004e+00 -3.9030456461780311e-01 -2.4079187586069326e-04 +4.0797473893441266e-01 +4.2625907661305767e+01 -3.5204441853662161e+03 -1.8084460191974789e+05 +1.3888523796429820e+07 
-2.1000000000000005e+00 -3.9030455054347257e-01 -2.4378736499816277e-04 +4.0611471551095157e-01 +4.2624233046219757e+01 -3.5195742082130582e+03 -1.8063795353882734e+05 +1.3956840680623850e+07 
-2.2000000000000006e+00 -3.9030453539507398e-01 -2.4571455463615375e-04 +4.0419845836804708e-01 +4.2611143561677572e+01 -3.5185810103963695e+03 -1.8042605573961145e+05 +1.4025282175507370e+07 
-2.3000000000000007e+00 -3.9030451924221193e-01 -2.4665447306233612e-04 +4.0223676830645311e-01 +4.2587522423705188e+01 -3.5174543355906749e+03 -1.8020952619823709e+05 +1.4093407148423955e+07 
-2.4000000000000008e+00 -3.9030450215446316e-01 -2.4668816008593719e-04 +4.0024044377485413e-01 +4.2554252146131510e+01 -3.5161837926047847e+03 -1.7998897666576252e+05 +1.4160773613821886e+07 
-2.5000000000000009e+00 -3.9030448420141278e-01 -2.4589667894832037e-04 +3.9822028589016095e-01 +4.2512215561188526e+01 -3.5147590517662256e+03 -1.7976501928658434e+05 +1.4226939887268821e+07 
-2.6000000000000010e+00 -3.9030446545261033e-01 -2.4436111544291994e-04 +3.9618709349790598e-01 +4.2462295728069876e+01 -3.5131697549759065e+03 -1.7953826584225352e+05 +1.4291464165290106e+07 
-2.7000000000000011e+00 -3.9030444597757402e-01 -2.4216258156983442e-04 +3.9415166492774617e-01 +4.2405375990214573e+01 -3.5114055601840987e+03 -1.7930932790496532e+05 +1.4353904762574032e+07 
-2.8000000000000012e+00 -3.9030442584580949e-01 -2.3938221774181498e-04 +3.9212480078626194e-01 +4.2342339978508910e+01 -3.5094561977701042e+03 -1.7907881664315361e+05 +1.4413820382173428e+07 
-2.9000000000000012e+00 -3.9030440512677056e-01 -2.3610119413697446e-04 +3.9011730002020689e-01 +4.2274071593320905e+01 -3.5073114041879730e+03 -1.7884734251335132e+05 +1.4470769821068114e+07 
-3.0000000000000013e+00 -3.9030438388989097e-01 -2.3240071213883289e-04 +3.8813996467690121e-01 +4.2201454991405519e+01 -3.5049610197810148e+03 -1.7861551499086455e+05 +1.4524312448099062e+07 
-3.1000000000000014e+00 -3.9030436220454623e-01 -2.2836200872374942e-04 +3.8620359589062941e-01 +4.2125374655652742e+01 -3.5023949177679542e+03 -1.7838394276589976e+05 +1.4574007877657318e+07 
-3.2000000000000015e+00 -3.9030434014007009e-01 -2.2406635363743995e-04 +3.8431899682051512e-01 +4.2046715255888508e+01 -3.4996030680691624e+03 -1.7815323273965283e+05 +1.4619416288859511e+07 
-3.3000000000000016e+00 -3.9030431776575447e-01 -2.1959505774473613e-04 +3.8249697330357219e-01 +4.1966361837037454e+01 -3.4965755562087638e+03 -1.7792399091525350e+05 +1.4660098528499776e+07 
-3.4000000000000017e+00 -3.9030429515082471e-01 -2.1502946887772884e-04 +3.8074833187228729e-01 +4.1885199637232951e+01 -3.4933025535646711e+03 -1.7769682113452986e+05 +1.4695615987358285e+07 
-3.5000000000000018e+00 -3.9030427236445031e-01 -2.1045097792372775e-04 +3.7908388136820215e-01 +4.1804114213006258e+01 -3.4897743518752868e+03 -1.7747232561294365e+05 +1.4725530768963339e+07 
-3.6000000000000019e+00 -3.9030424947574410e-01 -2.0594101827104593e-04 +3.7751443425289966e-01 +4.1723991363475044e+01 -3.4859813987868611e+03 -1.7725110429373311e+05 +1.4749405882447168e+07 
-3.7000000000000020e+00 -3.9030422655374525e-01 -2.0158107002066732e-04 +3.7605080490103754e-01 +4.1645717196688516e+01 -3.4819142701066189e+03 -1.7703375503084986e+05 +1.4766805119531967e+07 
-3.8000000000000020e+00 -3.9030420366742324e-01 -1.9745265975471132e-04 +3.7470381095369676e-01 +4.1570178067926705e+01 -3.4775637024291282e+03 -1.7682087303871886e+05 +1.4777293223056199e+07 
-3.9000000000000021e+00 -3.9030418088566571e-01 -1.9363736445226936e-04 +3.7348427280219049e-01 +4.1498260632474121e+01 -3.4729205917369777e+03 -1.7661305098189838e+05 +1.4780435898856457e+07 
-4.0000000000000018e+00 -3.9030415827751114e-01 -1.9021662565452536e-04 +3.7240306922497940e-01 +4.1430844883746879e+01 -3.4679775590206159e+03 -1.7641086417858989e+05 +1.4775806176837690e+07 
-4.1000000000000014e+00 -3.9030413587344487e-01 -1.8724627962305495e-04 +3.7146994574889058e-01 +4.1368064346107758e+01 -3.4627785029923962e+03 -1.7621181441289370e+05 +1.4763309024801780e+07 
-4.2000000000000011e+00 -3.9030411352102778e-01 -1.8471664371451249e-04 +3.7067780882655132e-01 +4.1309445896194120e+01 -3.4573231659654252e+03 -1.7601352372155926e+05 +1.4743214020008972e+07 
-4.3000000000000007e+00 -3.9030409101424896e-01 -1.8260932281801369e-04 +3.7001289303210755e-01 +4.1255079741845663e+01 -3.4515931203920713e+03 -1.7581803569858134e+05 +1.4715963053298268e+07 
-4.4000000000000004e+00 -3.9030406814713070e-01 -1.8090612970567946e-04 +3.6946145409913206e-01 +4.1205070757060653e+01 -3.4455715601122265e+03 -1.7562748294828000e+05 +1.4682008147369223e+07 
-4.5000000000000000e+00 -3.9030404471369234e-01 -1.7958883673505437e-04 +3.6900974484443166e-01 +4.1159523193768180e+01 -3.4392416199387958e+03 -1.7544399660515288e+05 +1.4641801089005491e+07 
-4.5999999999999996e+00 -3.9030402050795693e-01 -1.7863917223356836e-04 +3.6864401629795734e-01 +4.1118540632861013e+01 -3.4325863988137703e+03 -1.7526970626489696e+05 +1.4595793547449803e+07 
-4.6999999999999993e+00 -3.9030399532394200e-01 -1.7803881692505131e-04 +3.6835051593215556e-01 +4.1082225930962402e+01 -3.4255889235998811e+03 -1.7510673987319626e+05 +1.4544436900480151e+07 
-4.7999999999999989e+00 -3.9030396895567077e-01 -1.7776940004317747e-04 +3.6811548886244005e-01 +4.1050681156662939e+01 -3.4182321710036281e+03 -1.7495722355566992e+05 +1.4488182340314226e+07 
-4.8999999999999986e+00 -3.9030394119716050e-01 -1.7781249651151011e-04 +3.6792517632134264e-01 +4.1024007563957497e+01 -3.4104990382493215e+03 -1.7482328167093697e+05 +1.4427480737632306e+07 
-4.9999999999999982e+00 -3.9030391184244850e-01 -1.7814962290843008e-04 +3.6776581846404172e-01 +4.1002305520643482e+01 -3.4023723949075566e+03 -1.7470703658602695e+05 +1.4362782887688844e+07 
-5.0999999999999979e+00 -3.9030388068556460e-01 -1.7876223458638900e-04 +3.6762365056376617e-01 +4.0985674481384201e+01 -3.3938350086940336e+03 -1.7461060873481919e+05 +1.4294539158287562e+07 
-5.1999999999999975e+00 -3.9030384752055625e-01 -1.7963172224149811e-04 +3.6748490635527326e-01 +4.0974212934729827e+01 -3.3848696107384540e+03 -1.7453611649652582e+05 +1.4223199807192488e+07 
-5.2999999999999972e+00 -3.9030381214146764e-01 -1.8073940751235618e-04 +3.6733581462266751e-01 +4.0968018329968601e+01 -3.3754588265671346e+03 -1.7448567598824037e+05 +1.4149214649298649e+07 
-5.3999999999999968e+00 -3.9030377434235430e-01 -1.8206654019866755e-04 +3.6716260101318327e-01 +4.0967187046661387e+01 -3.3655852106451503e+03 -1.7446140108271819e+05 +1.4073033224026095e+07 
-5.4999999999999964e+00 -3.9030373391728451e-01 -1.8359429530485964e-04 +3.6695148812323453e-01 +4.0971814356534466e+01 -3.3552312484708550e+03 -1.7446540338066418e+05 +1.3995104810785403e+07 
-5.5999999999999961e+00 -3.9030369066033083e-01 -1.8530376856968592e-04 +3.6668869371476165e-01 +4.0981994351484552e+01 -3.3443793187716933e+03 -1.7449979201268987e+05 +1.3915878244597351e+07 
-5.6999999999999957e+00 -3.9030364436558618e-01 -1.8717597369997745e-04 +3.6636043291561649e-01 +4.0997819906758139e+01 -3.3330117365067490e+03 -1.7456667360588364e+05 +1.3835802126149446e+07 
-5.7999999999999954e+00 -3.9030359482715365e-01 -1.8919183881226882e-04 +3.6595291659845719e-01 +4.1019382635592478e+01 -3.3211107212200827e+03 -1.7466815224115754e+05 +1.3755324674894970e+07 
-5.8999999999999950e+00 -3.9030354183914712e-01 -1.9133220243039767e-04 +3.6545235084544042e-01 +4.1046772817960502e+01 -3.3086583828159296e+03 -1.7480632922500826e+05 +1.3674893654717378e+07 
-5.9999999999999947e+00 -3.9030348519556063e-01 -1.9357816847913426e-04 +3.6484486934813659e-01 +4.1080093949487811e+01 -3.2956343687185263e+03 -1.7498335235108231e+05 +1.3594945959077721e+07 
-6.0999999999999943e+00 -3.9030342479800145e-01 -1.9593156993872864e-04 +3.6412009124315303e-01 +4.1120139768982433e+01 -3.2820138692913665e+03 -1.7520476349471899e+05 +1.3515789729941737e+07 
-6.1999999999999940e+00 -3.9030336096263074e-01 -1.9841064863619450e-04 +3.6328617809189351e-01 +4.1167734337960411e+01 -3.2678914166628851e+03 -1.7547519941757858e+05 +1.3437826845303003e+07 
-6.2999999999999936e+00 -3.9030329411383458e-01 -2.0101921659794773e-04 +3.6235602857651789e-01 +4.1222827448927269e+01 -3.2533517907303908e+03 -1.7579390338963055e+05 +1.3361198681938406e+07 
-6.3999999999999932e+00 -3.9030322467575090e-01 -2.0376044602984784e-04 +3.6134243642000097e-01 +4.1285335109376582e+01 -3.2384753073888819e+03 -1.7615992459401704e+05 +1.3286020994357619e+07 
-6.4999999999999929e+00 -3.9030315307252128e-01 -2.0663755429102212e-04 +3.6025819657559177e-01 +4.1355173894844221e+01 -3.2233423147507829e+03 -1.7657231377168998e+05 +1.3212409697802706e+07 
-6.5999999999999925e+00 -3.9030307972825629e-01 -2.0965380776669931e-04 +3.5911610118984244e-01 +4.1432261018797071e+01 -3.2080331181862566e+03 -1.7703012351701109e+05 +1.3140480517025044e+07 
-6.6999999999999922e+00 -3.9030300506707105e-01 -2.1281252341028746e-04 +3.5792894406107212e-01 +4.1516514350899612e+01 -3.1926280637739792e+03 -1.7753240830703825e+05 +1.3070349374819145e+07 
-6.7999999999999918e+00 -3.9030292951306239e-01 -2.1611707309290856e-04 +3.5670951772463744e-01 +4.1607852499570413e+01 -3.1772074835756343e+03 -1.7807822486866996e+05 +1.3002132134948373e+07 
-6.8999999999999915e+00 -3.9030285349031069e-01 -2.1957088276220886e-04 +3.5547061380092931e-01 +4.1706194756687381e+01 -3.1618517027277840e+03 -1.7866663177547877e+05 +1.2935944634205779e+07 
-6.9999999999999911e+00 -3.9030277742289043e-01 -2.2317743647338152e-04 +3.5422502439814213e-01 +4.1811461180772696e+01 -3.1466410654468277e+03 -1.7929668983931359e+05 +1.2871902802582016e+07 
-7.0999999999999908e+00 -3.9030270173486398e-01 -2.2694027951568666e-04 +3.5298554146199090e-01 +4.1923572655213384e+01 -3.1316559240058236e+03 -1.7996746236029972e+05 +1.2810122612340311e+07 
-7.1999999999999904e+00 -3.9030262685027267e-01 -2.3086302013445751e-04 +3.5176495566655286e-01 +4.2042450893225237e+01 -3.1169766174878018e+03 -1.8067801503749672e+05 +1.2750719976689028e+07 
-7.2999999999999901e+00 -3.9030255319315849e-01 -2.3494933078724062e-04 +3.5057605920676682e-01 +4.2168018451722340e+01 -3.1026835248090551e+03 -1.8142741598777694e+05 +1.2693810997300319e+07 
-7.3999999999999897e+00 -3.9030248118753003e-01 -2.3920295109429617e-04 +3.4943164148925165e-01 +4.2300198773171601e+01 -3.0888569826255066e+03 -1.8221473587399485e+05 +1.2639511575306186e+07 
-7.4999999999999893e+00 -3.9030241125740273e-01 -2.4362769194473388e-04 +3.4834449451148264e-01 +4.2438916275640850e+01 -3.0755773891627841e+03 -1.8303904834718449e+05 +1.2587937903605854e+07 
-7.5999999999999890e+00 -3.9030234382676920e-01 -2.4822743514330941e-04 +3.4732740891192770e-01 +4.2584096303024431e+01 -3.0629251277844196e+03 -1.8389942965535796e+05 +1.2539206101133792e+07 
-7.6999999999999886e+00 -3.9030227931960476e-01 -2.5300613740242853e-04 +3.4639317494042976e-01 +4.2735665210355343e+01 -3.0509805867451978e+03 -1.8479495905332887e+05 +1.2493432307632755e+07 
-7.7999999999999883e+00 -3.9030221815987742e-01 -2.5796783141829039e-04 +3.4555458380352033e-01 +4.2893550354872453e+01 -3.0398241854473213e+03 -1.8572471864709075e+05 +1.2450732808153046e+07 
-7.8999999999999879e+00 -3.9030216077153873e-01 -2.6311663063799542e-04 +3.4482442634137817e-01 +4.3057680207547754e+01 -3.0295363473673829e+03 -1.8668779396715979e+05 +1.2411223897794070e+07 
-7.9999999999999876e+00 -3.9030210757878425e-01 -2.6845606018042497e-04 +3.4421563438588954e-01 +4.3227960940460726e+01 -3.0202017768464475e+03 -1.8768321220356689e+05 +1.2375039486732243e+07 
-8.0999999999999872e+00 -3.9030205887181701e-01 -2.7396578183257826e-04 +3.4373785856409739e-01 +4.3403573855351318e+01 -3.0119103524879924e+03 -1.8870649471286015e+05 +1.2342428536715517e+07 
-8.1999999999999869e+00 -3.9030201444242990e-01 -2.7962906668337664e-04 +3.4338527488666737e-01 +4.3583618659794539e+01 -3.0046335221662844e+03 -1.8975230512235643e+05 +1.2313362788583053e+07 
-8.2999999999999865e+00 -3.9030197395948835e-01 -2.8545509720287639e-04 +3.4315081373343009e-01 +4.3767773323882373e+01 -2.9983673618712969e+03 -1.9081749669437911e+05 +1.2287956820917217e+07 
-8.3999999999999861e+00 -3.9030193709241240e-01 -2.9145352387579236e-04 +3.4302759296532154e-01 +4.3955723134219454e+01 -2.9931118018817451e+03 -1.9189885780454619e+05 +1.2266335630512726e+07 
-8.4999999999999858e+00 -3.9030190351064320e-01 -2.9763396584236198e-04 +3.4300874192956099e-01 +4.4147153428406575e+01 -2.9888670318219192e+03 -1.9299317894085191e+05 +1.2248625430413645e+07 
-8.5999999999999854e+00 -3.9030187288361473e-01 -3.0400600758378099e-04 +3.4308739882714195e-01 +4.4341749534519558e+01 -2.9856334547329789e+03 -1.9409725241983327e+05 +1.2234953438104358e+07 
-8.6999999999999851e+00 -3.9030184488077319e-01 -3.1057920062889952e-04 +3.4325671283985443e-01 +4.4539196856884921e+01 -2.9834117262804975e+03 -1.9520787295329245e+05 +1.2225448055946827e+07 
-8.7999999999999847e+00 -3.9030181917156526e-01 -3.1736305731917038e-04 +3.4350984334160400e-01 +4.4739180727580703e+01 -2.9822027429557911e+03 -1.9632183684507009e+05 +1.2220238819711858e+07 
-8.8999999999999844e+00 -3.9030179542544796e-01 -3.2436705488294909e-04 +3.4383996126468619e-01 +4.4941386559140518e+01 -2.9820076678471810e+03 -1.9743594293778110e+05 +1.2219456515763747e+07 
-8.9999999999999840e+00 -3.9030177331187466e-01 -3.3160063130161291e-04 +3.4424024743210385e-01 +4.5145499759859959e+01 -2.9828278998865144e+03 -1.9854699219039068e+05 +1.2223233035550915e+07 
-9.0999999999999837e+00 -3.9030175250031968e-01 -3.3907318400072054e-04 +3.4470389606162888e-01 +4.5351205729578581e+01 -2.9846651418056426e+03 -1.9965178771395364e+05 +1.2231701696584404e+07 
-9.1999999999999833e+00 -3.9030173266026158e-01 -3.4679407067842859e-04 +3.4522411271454895e-01 +4.5558189919011532e+01 -2.9875213609770940e+03 -2.0074713518088878e+05 +1.2244997053390648e+07 
-9.2999999999999829e+00 -3.9030171346118170e-01 -3.5477260574938056e-04 +3.4579411486182077e-01 +4.5766137759736168e+01 -2.9913988046331247e+03 -2.0182984247821357e+05 +1.2263254977781808e+07 
-9.3999999999999826e+00 -3.9030169457256841e-01 -3.6301806092510464e-04 +3.4640713197904482e-01 +4.5974734716044416e+01 -2.9962999989209907e+03 -2.0289672007450482e+05 +1.2286612644209763e+07 
-9.4999999999999822e+00 -3.9030167566393509e-01 -3.7153966214439926e-04 +3.4705640841806767e-01 +4.6183666233894648e+01 -3.0022278052041684e+03 -2.0394458079838610e+05 +1.2315208796259154e+07 
-9.5999999999999819e+00 -3.9030165640477371e-01 -3.8034659090780873e-04 +3.4773519803414243e-01 +4.6392617808004481e+01 -3.0091853223070239e+03 -2.0497024026899209e+05 +1.2349183292911658e+07 
-9.6999999999999815e+00 -3.9030163646462335e-01 -3.8944798103908207e-04 +3.4843677245525156e-01 +4.6601274928014298e+01 -3.0171760389996543e+03 -2.0597051666931514e+05 +1.2388677814013332e+07 
-9.7999999999999812e+00 -3.9030161551300280e-01 -3.9885291805373605e-04 +3.4915441348823573e-01 +4.6809323091358031e+01 -3.0262036970211734e+03 -2.0694223086927584e+05 +1.2433835228406975e+07 
-9.8999999999999808e+00 -3.9030159321946262e-01 -4.0857043699139004e-04 +3.4988141936903383e-01 +4.7016447777148898e+01 -3.0362724049770977e+03 -2.0788220634888075e+05 +1.2484800115731645e+07 
-9.9999999999999805e+00 -3.9030156925386494e-01 -4.1861144484336017e-04 +3.5061097164512206e-01 +4.7222450664193808e+01 -3.0473747596585281e+03 -2.0878793014902662e+05 +1.2541646314583372e+07 
-1.0099999999999980e+01 -3.9030154336227402e-01 -4.2899327217867805e-04 +3.5134248944363666e-01 +4.7428025416854851e+01 -3.0595213555275818e+03 -2.0966278733237513e+05 +1.2604302554555040e+07 
