# trajectory
# s[mm] rx[mm] ry[mm] rz[mm] px[rad] py[rad] pz[rad]
0.0000000000000000e+00 +4.6467000000000001e+00 +0.0000000000000000e+00 +0.0000000000000000e+00 +0.0000000000000000e+00 +0.0000000000000000e+00 +1.0000000000000000e+00
-1.0000000000000001e-01 +4.6466956835460023e+00 +0.0000000000000000e+00 -9.9999999875788156e-02 +8.6329081472690038e-05 +0.0000000000000000e+00 +9.9999999627364489e-01
-2.0000000000000001e-01 +4.6466827341834165e+00 +0.0000000000000000e+00 -1.9999999900630525e-01 +1.7265817161953053e-04 +0.0000000000000000e+00 +9.9999998509457777e-01
-3.0000000000000004e-01 +4.6466611519114158e+00 +0.0000000000000000e+00 -2.9999999664627991e-01 +2.5898726963995334e-04 +0.0000000000000000e+00 +9.9999996646279654e-01
-4.0000000000000002e-01 +4.6466309367292533e+00 +0.0000000000000000e+00 -3.9999999205044068e-01 +3.4531637470714885e-04 +0.0000000000000000e+00 +9.9999994037829887e-01
-5.0000000000000000e-01 +4.6465920886362673e+00 +0.0000000000000000e+00 -4.9999998447351574e-01 +4.3164548596808731e-04 +0.0000000000000000e+00 +9.9999990684108286e-01
-5.9999999999999998e-01 +4.6465446076318822e+00 +0.0000000000000000e+00 -5.9999997317023324e-01 +5.1797460254353735e-04 +0.0000000000000000e+00 +9.9999986585114653e-01
-6.9999999999999996e-01 +4.6464884937156112e+00 +0.0000000000000000e+00 -6.9999995739532106e-01 +6.0430372352808222e-04 +0.0000000000000000e+00 +9.9999981740848820e-01
-7.9999999999999993e-01 +4.6464237468870602e+00 +0.0000000000000000e+00 -7.9999993640350686e-01 +6.9063284799013281e-04 +0.0000000000000000e+00 +9.9999976151310621e-01
-8.9999999999999991e-01 +4.6463503671459288e+00 +0.0000000000000000e+00 -8.9999990944951813e-01 +7.7696197497193853e-04 +0.0000000000000000e+00 +9.9999969816499923e-01
-9.9999999999999989e-01 +4.6462683544920145e+00 +0.0000000000000000e+00 -9.9999987578808247e-01 +8.6329110348959469e-04 +0.0000000000000000e+00 +9.9999962736416592e-01
-1.0999999999999999e+00 +4.6461777089252134e+00 +0.0000000000000000e+00 -1.0999998346739270e+00 +9.4962023253304835e-04 +0.0000000000000000e+00 +9.9999954911060540e-01
-1.2000000000000000e+00 +4.6460784304455247e+00 +0.0000000000000000e+00 -1.1999997853617792e+00 +1.0359493610661002e-03 +0.0000000000000000e+00 +9.9999946340431678e-01
-1.3000000000000000e+00 +4.6459705190530523e+00 +0.0000000000000000e+00 -1.2999997271063661e+00 +1.1222784880264049e-03 +0.0000000000000000e+00 +9.9999937024529950e-01
-1.4000000000000001e+00 +4.6458539747480074e+00 +0.0000000000000000e+00 -1.3999996591624149e+00 +1.2086076123254677e-03 +0.0000000000000000e+00 +9.9999926963355312e-01
-1.5000000000000002e+00 +4.6457287975307127e+00 +0.0000000000000000e+00 -1.4999995807846525e+00 +1.2949367328486396e-03 +0.0000000000000000e+00 +9.9999916156907764e-01
-1.6000000000000003e+00 +4.6455949874016014e+00 +0.0000000000000000e+00 -1.5999994912278062e+00 +1.3812658484551085e-03 +0.0000000000000000e+00 +9.9999904605187306e-01
-1.7000000000000004e+00 +4.6454525443612242e+00 +0.0000000000000000e+00 -1.6999993897466028e+00 +1.4675949579778882e-03 +0.0000000000000000e+00 +9.9999892308193994e-01
-1.8000000000000005e+00 +4.6453014684102483e+00 +0.0000000000000000e+00 -1.7999992755957699e+00 +1.5539240602238057e-03 +0.0000000000000000e+00 +9.9999879265927882e-01
-1.9000000000000006e+00 +4.6451417595494622e+00 +0.0000000000000000e+00 -1.8999991480300344e+00 +1.6402531539734839e-03 +0.0000000000000000e+00 +9.9999865478389072e-01
-2.0000000000000004e+00 +4.6449734177797781e+00 +0.0000000000000000e+00 -1.9999990063041237e+00 +1.7265822379813230e-03 +0.0000000000000000e+00 +9.9999850945577695e-01
-2.1000000000000005e+00 +4.6447964431022335e+00 +0.0000000000000000e+00 -2.0999988496727657e+00 +1.8129113109774920e-03 +0.0000000000000000e+00 +9.9999835667493908e-01
-2.2000000000000006e+00 +4.6446108355179927e+00 +0.0000000000000000e+00 -2.1999986773906874e+00 +1.8992403716900468e-03 +0.0000000000000000e+00 +9.9999819644137888e-01
-2.3000000000000007e+00 +4.6444165950283471e+00 +0.0000000000000000e+00 -2.2999984887126175e+00 +1.9855694188670573e-03 +0.0000000000000000e+00 +9.9999802875509858e-01
-2.4000000000000008e+00 +4.6442137216347117e+00 +0.0000000000000000e+00 -2.3999982828932835e+00 +2.0718984512786112e-03 +0.0000000000000000e+00 +9.9999785361610039e-01
-2.5000000000000009e+00 +4.6440022153386238e+00 +0.0000000000000000e+00 -2.4999980591874138e+00 +2.1582274677168045e-03 +0.0000000000000000e+00 +9.9999767102438686e-01
-2.6000000000000010e+00 +4.6437820761417399e+00 +0.0000000000000000e+00 -2.5999978168497373e+00 +2.2445564669957311e-03 +0.0000000000000000e+00 +9.9999748097996066e-01
-2.7000000000000011e+00 +4.6435533040458354e+00 +0.0000000000000000e+00 -2.6999975551349826e+00 +2.3308854479514736e-03 +0.0000000000000000e+00 +9.9999728348282468e-01
-2.8000000000000012e+00 +4.6433158990527987e+00 +0.0000000000000000e+00 -2.7999972732978788e+00 +2.4172144094420913e-03 +0.0000000000000000e+00 +9.9999707853298203e-01
-2.9000000000000012e+00 +4.6430698611646335e+00 +0.0000000000000000e+00 -2.8999969705931554e+00 +2.5035433503476086e-03 +0.0000000000000000e+00 +9.9999686613043604e-01
-3.0000000000000013e+00 +4.6428151903834527e+00 +0.0000000000000000e+00 -2.9999966462755427e+00 +2.5898722695700039e-03 +0.0000000000000000e+00 +9.9999664627519003e-01
-3.1000000000000014e+00 +4.6425518867114786e+00 +0.0000000000000000e+00 -3.0999962995997703e+00 +2.6762011660331968e-03 +0.0000000000000000e+00 +9.9999641896724767e-01
-3.2000000000000015e+00 +4.6422799501510399e+00 +0.0000000000000000e+00 -3.1999959298205689e+00 +2.7625300386830351e-03 +0.0000000000000000e+00 +9.9999618420661263e-01
-3.3000000000000016e+00 +4.6419993807045703e+00 +0.0000000000000000e+00 -3.2999955361926698e+00 +2.8488588864872813e-03 +0.0000000000000000e+00 +9.9999594199328878e-01
-3.4000000000000017e+00 +4.6417101783746046e+00 +0.0000000000000000e+00 -3.3999951179708039e+00 +2.9351877084355989e-03 +0.0000000000000000e+00 +9.9999569232728014e-01
-3.5000000000000018e+00 +4.6414123431637782e+00 +0.0000000000000000e+00 -3.4999946744097032e+00 +3.0215165035395375e-03 +0.0000000000000000e+00 +9.9999543520859080e-01
-3.6000000000000019e+00 +4.6411058750748238e+00 +0.0000000000000000e+00 -3.5999942047640996e+00 +3.1078452708325184e-03 +0.0000000000000000e+00 +9.9999517063722498e-01
-3.7000000000000020e+00 +4.6407907741105703e+00 +0.0000000000000000e+00 -3.6999937082887260e+00 +3.1941740093698193e-03 +0.0000000000000000e+00 +9.9999489861318691e-01
-3.8000000000000020e+00 +4.6404670402739390e+00 +0.0000000000000000e+00 -3.7999931842383150e+00 +3.2805027182285572e-03 +0.0000000000000000e+00 +9.9999461913648102e-01
-3.9000000000000021e+00 +4.6401346735679434e+00 +0.0000000000000000e+00 -3.8999926318676001e+00 +3.3668313965076733e-03 +0.0000000000000000e+00 +9.9999433220711187e-01
-4.0000000000000018e+00 +4.6397936739956860e+00 +0.0000000000000000e+00 -3.9999920504313153e+00 +3.4531600433279153e-03 +0.0000000000000000e+00 +9.9999403782508389e-01
-4.1000000000000014e+00 +4.6394440415603553e+00 +0.0000000000000000e+00 -4.0999914391841950e+00 +3.5394886578298465e-03 +0.0000000000000000e+00 +9.9999373599040176e-01
-4.2000000000000011e+00 +4.6390857762652260e+00 +0.0000000000000000e+00 -4.1999907973809743e+00 +3.6258172391521147e-03 +0.0000000000000000e+00 +9.9999342670307012e-01
-4.3000000000000007e+00 +4.6387188781136599e+00 +0.0000000000000000e+00 -4.2999901242763876e+00 +3.7121457864097303e-03 +0.0000000000000000e+00 +9.9999310996309398e-01
-4.4000000000000004e+00 +4.6383433471091093e+00 +0.0000000000000000e+00 -4.3999894191251716e+00 +3.7984742986920971e-03 +0.0000000000000000e+00 +9.9999278577047856e-01
-4.5000000000000000e+00 +4.6379591832551181e+00 +0.0000000000000000e+00 -4.4999886811820620e+00 +3.8848027750630204e-03 +0.0000000000000000e+00 +9.9999245412522930e-01
-4.5999999999999996e+00 +4.6375663865553252e+00 +0.0000000000000000e+00 -4.5999879097017962e+00 +3.9711312145607148e-03 +0.0000000000000000e+00 +9.9999211502735197e-01
-4.6999999999999993e+00 +4.6371649570134679e+00 +0.0000000000000000e+00 -4.6999871039391117e+00 +4.0574596161978135e-03 +0.0000000000000000e+00 +9.9999176847685245e-01
-4.7999999999999989e+00 +4.6367548946333814e+00 +0.0000000000000000e+00 -4.7999862631487460e+00 +4.1437879789613784e-03 +0.0000000000000000e+00 +9.9999141447373707e-01
-4.8999999999999986e+00 +4.6363361994190058e+00 +0.0000000000000000e+00 -4.8999853865854384e+00 +4.2301163018129114e-03 +0.0000000000000000e+00 +9.9999105301801228e-01
-4.9999999999999982e+00 +4.6359088713743848e+00 +0.0000000000000000e+00 -4.9999844735039281e+00 +4.3164445836883659e-03 +0.0000000000000000e+00 +9.9999068410968506e-01
-5.0999999999999979e+00 +4.6354729105036707e+00 +0.0000000000000000e+00 -5.0999835231589552e+00 +4.4027728234981604e-03 +0.0000000000000000e+00 +9.9999030774876241e-01
-5.1999999999999975e+00 +4.6350283168111250e+00 +0.0000000000000000e+00 -5.1999825348052608e+00 +4.4891010201271930e-03 +0.0000000000000000e+00 +9.9998992393525199e-01
-5.2999999999999972e+00 +4.6345750903011229e+00 +0.0000000000000000e+00 -5.2999815076975860e+00 +4.5754291724348552e-03 +0.0000000000000000e+00 +9.9998953266916146e-01
-5.3999999999999968e+00 +4.6341132309781541e+00 +0.0000000000000000e+00 -5.3999804410906735e+00 +4.6617572792550469e-03 +0.0000000000000000e+00 +9.9998913395049904e-01
-5.4999999999999964e+00 +4.6336427388468273e+00 +0.0000000000000000e+00 -5.4999793342392671e+00 +4.7480853393961960e-03 +0.0000000000000000e+00 +9.9998872777927328e-01
-5.5999999999999961e+00 +4.6331636139118713e+00 +0.0000000000000000e+00 -5.5999781863981104e+00 +4.8344133516412726e-03 +0.0000000000000000e+00 +9.9998831415549316e-01
-5.6999999999999957e+00 +4.6326758561781372e+00 +0.0000000000000000e+00 -5.6999769968219480e+00 +4.9207413147478105e-03 +0.0000000000000000e+00 +9.9998789307916780e-01
-5.7999999999999954e+00 +4.6321794656506023e+00 +0.0000000000000000e+00 -5.7999757647655263e+00 +5.0070692274479245e-03 +0.0000000000000000e+00 +9.9998746455030696e-01
-5.8999999999999950e+00 +4.6316744423343712e+00 +0.0000000000000000e+00 -5.8999744894835917e+00 +5.0933970884483332e-03 +0.0000000000000000e+00 +9.9998702856892063e-01
-5.9999999999999947e+00 +4.6311607862346795e+00 +0.0000000000000000e+00 -5.9999731702308932e+00 +5.1797248964303780e-03 +0.0000000000000000e+00 +9.9998658513501926e-01
-6.0999999999999943e+00 +4.6306384973568964e+00 +0.0000000000000000e+00 -6.0999718062621788e+00 +5.2660526500549034e-03 +0.0000000000000000e+00 +9.9998613424861382e-01
-6.1999999999999940e+00 +4.6301075757065240e+00 +0.0000000000000000e+00 -6.1999703968321995e+00 +5.3523803480157320e-03 +0.0000000000000000e+00 +9.9998567590971521e-01
-6.2999999999999936e+00 +4.6295680212891899e+00 +0.0000000000000000e+00 -6.2999689411957061e+00 +5.4387079890931625e-03 +0.0000000000000000e+00 +9.9998521011833430e-01
-6.3999999999999932e+00 +4.6290198341106397e+00 +0.0000000000000000e+00 -6.3999674386074510e+00 +5.5250355721588318e-03 +0.0000000000000000e+00 +9.9998473687448164e-01
-6.4999999999999929e+00 +4.6284630141767265e+00 +0.0000000000000000e+00 -6.4999658883221869e+00 +5.6113630961757161e-03 +0.0000000000000000e+00 +9.9998425617816744e-01
-6.5999999999999925e+00 +4.6278975614934037e+00 +0.0000000000000000e+00 -6.5999642895946691e+00 +5.6976905601981275e-03 +0.0000000000000000e+00 +9.9998376802940170e-01
-6.6999999999999922e+00 +4.6273234760667146e+00 +0.0000000000000000e+00 -6.6999626416796527e+00 +5.7840179633717121e-03 +0.0000000000000000e+00 +9.9998327242819385e-01
-6.7999999999999918e+00 +4.6267407579027831e+00 +0.0000000000000000e+00 -6.7999609438318940e+00 +5.8703453049334482e-03 +0.0000000000000000e+00 +9.9998276937455322e-01
-6.8999999999999915e+00 +4.6261494070078042e+00 +0.0000000000000000e+00 -6.8999591953061499e+00 +5.9566725842116423e-03 +0.0000000000000000e+00 +9.9998225886848835e-01
-6.9999999999999911e+00 +4.6255494233880361e+00 +0.0000000000000000e+00 -6.9999573953571783e+00 +6.0429998006259296e-03 +0.0000000000000000e+00 +9.9998174091000758e-01
-7.0999999999999908e+00 +4.6249408070497910e+00 +0.0000000000000000e+00 -7.0999555432397381e+00 +6.1293269536872690e-03 +0.0000000000000000e+00 +9.9998121549911856e-01
-7.1999999999999904e+00 +4.6243235579994240e+00 +0.0000000000000000e+00 -7.1999536382085889e+00 +6.2156540429979413e-03 +0.0000000000000000e+00 +9.9998068263582851e-01
-7.2999999999999901e+00 +4.6236976762433271e+00 +0.0000000000000000e+00 -7.2999516795184904e+00 +6.3019810682515458e-03 +0.0000000000000000e+00 +9.9998014232014387e-01
-7.3999999999999897e+00 +4.6230631617879165e+00 +0.0000000000000000e+00 -7.3999496664242042e+00 +6.3883080292329985e-03 +0.0000000000000000e+00 +9.9997959455207053e-01
-7.4999999999999893e+00 +4.6224200146396273e+00 +0.0000000000000000e+00 -7.4999475981804915e+00 +6.4746349258185286e-03 +0.0000000000000000e+00 +9.9997903933161369e-01
-7.5999999999999890e+00 +4.6217682348049012e+00 +0.0000000000000000e+00 -7.5999454740421140e+00 +6.5609617579756732e-03 +0.0000000000000000e+00 +9.9997847665877793e-01
-7.6999999999999886e+00 +4.6211078222901785e+00 +0.0000000000000000e+00 -7.6999432932638339e+00 +6.6472885257632770e-03 +0.0000000000000000e+00 +9.9997790653356688e-01
-7.7999999999999883e+00 +4.6204387771018895e+00 +0.0000000000000000e+00 -7.7999410551004145e+00 +6.7336152293314862e-03 +0.0000000000000000e+00 +9.9997732895598346e-01
-7.8999999999999879e+00 +4.6197610992464453e+00 +0.0000000000000000e+00 -7.8999387588066181e+00 +6.8199418689217466e-03 +0.0000000000000000e+00 +9.9997674392602964e-01
-7.9999999999999876e+00 +4.6190747887302273e+00 +0.0000000000000000e+00 -7.9999364036372080e+00 +6.9062684448667989e-03 +0.0000000000000000e+00 +9.9997615144370677e-01
-8.0999999999999872e+00 +4.6183798455595797e+00 +0.0000000000000000e+00 -8.0999339888469475e+00 +6.9925949575839700e-03 +0.0000000000000000e+00 +9.9997555150901507e-01
-8.1999999999999869e+00 +4.6176762697408034e+00 +0.0000000000000000e+00 -8.1999315136905988e+00 +7.0789214075012803e-03 +0.0000000000000000e+00 +9.9997494412195453e-01
-8.2999999999999865e+00 +4.6169640612801599e+00 +0.0000000000000000e+00 -8.2999289774229261e+00 +7.1652477949834554e-03 +0.0000000000000000e+00 +9.9997432928252517e-01
-8.3999999999999861e+00 +4.6162432201838772e+00 +0.0000000000000000e+00 -8.3999263792986927e+00 +7.2515741203251945e-03 +0.0000000000000000e+00 +9.9997370699072730e-01
-8.4999999999999858e+00 +4.6155137464581584e+00 +0.0000000000000000e+00 -8.4999237185726599e+00 +7.3379003837511772e-03 +0.0000000000000000e+00 +9.9997307724656148e-01
-8.5999999999999854e+00 +4.6147756401091860e+00 +0.0000000000000000e+00 -8.5999209944995929e+00 +7.4242265854160732e-03 +0.0000000000000000e+00 +9.9997244005002850e-01
-8.6999999999999851e+00 +4.6140289011431310e+00 +0.0000000000000000e+00 -8.6999182063342531e+00 +7.5105527254045465e-03 +0.0000000000000000e+00 +9.9997179540112946e-01
-8.7999999999999847e+00 +4.6132735295661602e+00 +0.0000000000000000e+00 -8.7999153533314054e+00 +7.5968788037312678e-03 +0.0000000000000000e+00 +9.9997114329986581e-01
-8.8999999999999844e+00 +4.6125095253844419e+00 +0.0000000000000000e+00 -8.8999124347458132e+00 +7.6832048203409210e-03 +0.0000000000000000e+00 +9.9997048374623942e-01
-8.9999999999999840e+00 +4.6117368886041534e+00 +0.0000000000000000e+00 -8.9999094498322414e+00 +7.7695307751082122e-03 +0.0000000000000000e+00 +9.9996981674025243e-01
-9.0999999999999837e+00 +4.6109556192314880e+00 +0.0000000000000000e+00 -9.0999063978454515e+00 +7.8558566678378766e-03 +0.0000000000000000e+00 +9.9996914228190747e-01
-9.1999999999999833e+00 +4.6101657172726620e+00 +0.0000000000000000e+00 -9.1999032780402104e+00 +7.9421824982646924e-03 +0.0000000000000000e+00 +9.9996846037120768e-01
-9.2999999999999829e+00 +4.6093671827339229e+00 +0.0000000000000000e+00 -9.2999000896712811e+00 +8.0285082660534867e-03 +0.0000000000000000e+00 +9.9996777100815659e-01
-9.3999999999999826e+00 +4.6085600156215527e+00 +0.0000000000000000e+00 -9.3998968319934306e+00 +8.1148339707991443e-03 +0.0000000000000000e+00 +9.9996707419275843e-01
-9.4999999999999822e+00 +4.6077442159418798e+00 +0.0000000000000000e+00 -9.4998935042614221e+00 +8.2011596120266199e-03 +0.0000000000000000e+00 +9.9996636992501775e-01
-9.5999999999999819e+00 +4.6069197837012830e+00 +0.0000000000000000e+00 -9.5998901057300223e+00 +8.2874851891909466e-03 +0.0000000000000000e+00 +9.9996565820493977e-01
-9.6999999999999815e+00 +4.6060867189061980e+00 +0.0000000000000000e+00 -9.6998866356539981e+00 +8.3738107016772464e-03 +0.0000000000000000e+00 +9.9996493903253025e-01
-9.7999999999999812e+00 +4.6052450215631264e+00 +0.0000000000000000e+00 -9.7998830932881162e+00 +8.4601361488007409e-03 +0.0000000000000000e+00 +9.9996421240779576e-01
-9.8999999999999808e+00 +4.6043946916786416e+00 +0.0000000000000000e+00 -9.8998794778871453e+00 +8.5464615298067627e-03 +0.0000000000000000e+00 +9.9996347833074339e-01
-9.9999999999999805e+00 +4.6035357292593959e+00 +0.0000000000000000e+00 -9.9998757887058538e+00 +8.6327868438707649e-03 +0.0000000000000000e+00 +9.9996273680138092e-01
-1.0099999999999980e+01 +4.6026681343121281e+00 +0.0000000000000000e+00 -1.0099872024999010e+01 +8.7191120901000535e-03 +0.0000000000000000e+00 +9.9996198781971701e-01
-1.0199999999999980e+01 +4.6017919068436681e+00 +0.0000000000000000e+00 -1.0199868186021387e+01 +8.8054372675527744e-03 +0.0000000000000000e+00 +9.9996123138576065e-01
-1.0299999999999979e+01 +4.6009070468609421e+00 +0.0000000000000000e+00 -1.0299864271027754e+01 +8.8917623752569480e-03 +0.0000000000000000e+00 +9.9996046749952150e-01
-1.0399999999999979e+01 +4.6000135543709746e+00 +0.0000000000000000e+00 -1.0399860279272882e+01 +8.9780874122122011e-03 +0.0000000000000000e+00 +9.9995969616100944e-01
-1.0499999999999979e+01 +4.5991114293808923e+00 +0.0000000000000000e+00 -1.0499856210011547e+01 +9.0644123773897505e-03 +0.0000000000000000e+00 +9.9995891737023490e-01
-1.0599999999999978e+01 +4.5982006718979251e+00 +0.0000000000000000e+00 -1.0599852062498522e+01 +9.1507372697324021e-03 +0.0000000000000000e+00 +9.9995813112720877e-01
-1.0699999999999978e+01 +4.5972812819294102e+00 +0.0000000000000000e+00 -1.0699847835988582e+01 +9.2370620881545365e-03 +0.0000000000000000e+00 +9.9995733743194226e-01
-1.0799999999999978e+01 +4.5963532594827949e+00 +0.0000000000000000e+00 -1.0799843529736503e+01 +9.3233868315421072e-03 +0.0000000000000000e+00 +9.9995653628444725e-01
-1.0899999999999977e+01 +4.5954166045656404e+00 +0.0000000000000000e+00 -1.0899839142997063e+01 +9.4097114987526254e-03 +0.0000000000000000e+00 +9.9995572768473595e-01
-1.0999999999999977e+01 +4.5944713171856222e+00 +0.0000000000000000e+00 -1.0999834675025042e+01 +9.4960360886151528e-03 +0.0000000000000000e+00 +9.9995491163282124e-01
-1.1099999999999977e+01 +4.5935173973505350e+00 +0.0000000000000000e+00 -1.1099830125075220e+01 +9.5823605999302945e-03 +0.0000000000000000e+00 +9.9995408812871633e-01
-1.1199999999999976e+01 +4.5925548450682951e+00 +0.0000000000000000e+00 -1.1199825492402379e+01 +9.6686850314701891e-03 +0.0000000000000000e+00 +9.9995325717243499e-01
-1.1299999999999976e+01 +4.5915836603469424e+00 +0.0000000000000000e+00 -1.1299820776261301e+01 +9.7550093819784960e-03 +0.0000000000000000e+00 +9.9995241876399155e-01
-1.1399999999999975e+01 +4.5906038431946437e+00 +0.0000000000000000e+00 -1.1399815975906773e+01 +9.8413336501703905e-03 +0.0000000000000000e+00 +9.9995157290340098e-01
-1.1499999999999975e+01 +4.5896153936196962e+00 +0.0000000000000000e+00 -1.1499811090593578e+01 +9.9276578347325534e-03 +0.0000000000000000e+00 +9.9995071959067872e-01
-1.1599999999999975e+01 +4.5886183116305297e+00 +0.0000000000000000e+00 -1.1599806119576504e+01 +1.0013981934323160e-02 +0.0000000000000000e+00 +9.9994985882584075e-01
-1.1699999999999974e+01 +4.5876125972357098e+00 +0.0000000000000000e+00 -1.1699801062110343e+01 +1.0100305947571872e-02 +0.0000000000000000e+00 +9.9994899060890363e-01
