# multipoles
# s[mm] polynom_b[n=0][T/m^n] polynom_b[n=1][T/m^n] polynom_b[n=2][T/m^n] polynom_b[n=3][T/m^n] polynom_b[n=4][T/m^n] polynom_b[n=5][T/m^n] polynom_b[n=6][T/m^n] 
+0.0000000000000000e+00 +4.3289462143027396e-01 +2.9841333360404069e-04 -4.2412077341138464e-02 +1.4775681190289776e+00 -1.5452459608027286e+02 +2.3812796387388960e+04 -1.3687950213858816e+06 
+1.0000000000000001e-01 +4.3289462137551765e-01 +2.9840742270400666e-04 -4.2410560014696216e-02 +1.4777161073672673e+00 -1.5455511026044147e+02 +2.3811285386947213e+04 -1.3685855426432064e+06 
+2.0000000000000001e-01 +4.3289462121225686e-01 +2.9839053454725520e-04 -4.2406229940848326e-02 +1.4781288247909812e+00 -1.5464118486060352e+02 +2.3807052284914877e+04 -1.3679959315303448e+06 
+3.0000000000000004e-01 +4.3289462094203723e-01 +2.9836393599422814e-04 -4.2399425062840106e-02 +1.4787593946542141e+00 -1.5477451428617871e+02 +2.3800547012620660e+04 -1.3670849391357759e+06 
+4.0000000000000002e-01 +4.3289462056638123e-01 +2.9832889621924947e-04 -4.2390479996956228e-02 +1.4795608703386032e+00 -1.5494685863237723e+02 +2.3792219952752559e+04 -1.3659110028724351e+06 
+5.0000000000000000e-01 +4.3289462008681501e-01 +2.9828668241831162e-04 -4.2379730171002175e-02 +1.4804863545005758e+00 -1.5514996045150124e+02 +2.3782521249312620e+04 -1.3645326510396816e+06 
+5.9999999999999998e-01 +4.3289461950488345e-01 +2.9823856479115068e-04 -4.2367513222871606e-02 +1.4814888698092661e+00 -1.5537552095679450e+02 +2.3771901489128326e+04 -1.3630086058311323e+06 
+6.9999999999999996e-01 +4.3289461882211672e-01 +2.9818581052661416e-04 -4.2354164979319153e-02 +1.4825215285135702e+00 -1.5561527665781725e+02 +2.3760810723162769e+04 -1.3613974180473725e+06 
+7.9999999999999993e-01 +4.3289461804003326e-01 +2.9812968681152557e-04 -4.2340019811756877e-02 +1.4835374527540537e+00 -1.5586099186333564e+02 +2.3749698884312180e+04 -1.3597575028645897e+06 
+8.9999999999999991e-01 +4.3289461716016836e-01 +2.9807146111646940e-04 -4.2325414070445148e-02 +1.4844897672383064e+00 -1.5610439650670435e+02 +2.3739015807588094e+04 -1.3581474235084378e+06 
+9.9999999999999989e-01 +4.3289461618404812e-01 +2.9801239984642735e-04 -4.2310682802264014e-02 +1.4853316534456382e+00 -1.5633724753554614e+02 +2.3729210822660145e+04 -1.3566255973378117e+06 
+1.0999999999999999e+00 +4.3289461511300836e-01 +2.9795346451263690e-04 -4.2296107887840509e-02 +1.4860288665836743e+00 -1.5655279286287981e+02 +2.3720595005719653e+04 -1.3552368507768423e+06 
+1.2000000000000000e+00 +4.3289461394779105e-01 +2.9789472328647286e-04 -4.2281809243232125e-02 +1.4865820488091157e+00 -1.5674868413078866e+02 +2.3713087332985255e+04 -1.3539859827167999e+06 
+1.3000000000000000e+00 +4.3289461268903107e-01 +2.9783607686959440e-04 -4.2267876839115322e-02 +1.4869978556545187e+00 -1.5692337631052530e+02 +2.3706537903941789e+04 -1.3528704526359641e+06 
+1.4000000000000001e+00 +4.3289461133735913e-01 +2.9777742695560124e-04 -4.2254400235571608e-02 +1.4872829128341130e+00 -1.5707533231272782e+02 +2.3700797012278123e+04 -1.3518876826520662e+06 
+1.5000000000000002e+00 +4.3289460989340778e-01 +2.9771867404609843e-04 -4.2241469039659744e-02 +1.4874438804917332e+00 -1.5720301510206059e+02 +2.3695714787829518e+04 -1.3510350956531782e+06 
+1.6000000000000003e+00 +4.3289460835780535e-01 +2.9765972042099486e-04 -4.2229172707835445e-02 +1.4874873669026127e+00 -1.5730488863831670e+02 +2.3691141697358296e+04 -1.3503101174785630e+06 
+1.7000000000000004e+00 +4.3289460673119340e-01 +2.9760046739014229e-04 -4.2217602174545857e-02 +1.4874200043570702e+00 -1.5737938927173857e+02 +2.3686928129074156e+04 -1.3497103077316596e+06 
+1.8000000000000005e+00 +4.3289460501419486e-01 +2.9754081845546833e-04 -4.2206846162782204e-02 +1.4872483600585737e+00 -1.5742499448159890e+02 +2.3682924909967933e+04 -1.3492330394120398e+06 
+1.9000000000000006e+00 +4.3289460320745571e-01 +2.9748067633215015e-04 -4.2196996450634745e-02 +1.4869790155501925e+00 -1.5744012265530489e+02 +2.3678982871650212e+04 -1.3488759731985237e+06 
+2.0000000000000004e+00 +4.3289460131160334e-01 +2.9741994382405655e-04 -4.2188142452254100e-02 +1.4866185282600255e+00 -1.5742323517739408e+02 +2.3674953328221440e+04 -1.3486365989375757e+06 
+2.1000000000000005e+00 +4.3289459932664504e-01 +2.9735847567231779e-04 -4.2180279431496756e-02 +1.4861724479791847e+00 -1.5737460808120500e+02 +2.3670748401586410e+04 -1.3485082087695508e+06 
+2.2000000000000006e+00 +4.3289459725114920e-01 +2.9729601501748520e-04 -4.2173180083095931e-02 +1.4856458867002318e+00 -1.5729893225812262e+02 +2.3666402820170701e+04 -1.3484728457891352e+06 
+2.3000000000000007e+00 +4.3289459508351802e-01 +2.9723229804905845e-04 -4.2166589196755914e-02 +1.4850440717789872e+00 -1.5720146796468890e+02 +2.3661965942919400e+04 -1.3485111818830844e+06 
+2.4000000000000008e+00 +4.3289459282213821e-01 +2.9716705944587784e-04 -4.2160249653582615e-02 +1.4843722776135579e+00 -1.5708751157100778e+02 +2.3657486815540240e+04 -1.3486037156741470e+06 
+2.5000000000000009e+00 +4.3289459046540762e-01 +2.9710003321553315e-04 -4.2153905703588949e-02 +1.4836358043306810e+00 -1.5696233440006861e+02 +2.3653014284435223e+04 -1.3487310580070403e+06 
+2.6000000000000010e+00 +4.3289458801172265e-01 +2.9703095353385609e-04 -4.2147301500258673e-02 +1.4828399529576530e+00 -1.5683120961178307e+02 +2.3648597136560020e+04 -1.3488738074371002e+06 
+2.7000000000000011e+00 +4.3289458545947074e-01 +2.9695955410735469e-04 -4.2140179820531344e-02 +1.4819900425760621e+00 -1.5669943821363623e+02 +2.3644283997667007e+04 -1.3490124222232755e+06 
+2.8000000000000012e+00 +4.3289458280704174e-01 +2.9688556739604989e-04 -4.2132283945496680e-02 +1.4810914366456274e+00 -1.5657231124854016e+02 +2.3640123166056459e+04 -1.3491274034531664e+06 
+2.9000000000000012e+00 +4.3289458005282921e-01 +2.9680872717774350e-04 -4.2123357547802047e-02 +1.4801494662482189e+00 -1.5645511334304791e+02 +2.3636163056611800e+04 -1.3491992750957750e+06 
+3.0000000000000013e+00 +4.3289457719522723e-01 +2.9672876677735868e-04 -4.2113144531591977e-02 +1.4791695197431669e+00 -1.5635312666539110e+02 +2.3632451142402009e+04 -1.3492085204784989e+06 
+3.1000000000000014e+00 +4.3289457423343441e-01 +2.9664558593377080e-04 -4.2101525289056752e-02 +1.4781549196216057e+00 -1.5626896233267152e+02 +2.3629002413459082e+04 -1.3491450095900674e+06 
+3.2000000000000015e+00 +4.3289457116805286e-01 +2.9655935353930369e-04 -4.2088638280836629e-02 +1.4771057873148263e+00 -1.5620006252939842e+02 +2.3625773126734806e+04 -1.3490177520748393e+06 
+3.3000000000000016e+00 +4.3289456799977077e-01 +2.9647025084818983e-04 -4.2074647048051049e-02 +1.4760223545338589e+00 -1.5614332623781274e+02 +2.3622710992302138e+04 -1.3488379133388929e+06 
+3.4000000000000017e+00 +4.3289456472928833e-01 +2.9637845892745054e-04 -4.2059716575361762e-02 +1.4749048526974897e+00 -1.5609562408180932e+02 +2.3619763791052515e+04 -1.3486168019951507e+06 
+3.5000000000000018e+00 +4.3289456135729859e-01 +2.9628416107646007e-04 -4.2044011168320163e-02 +1.4737534380756905e+00 -1.5605383778117442e+02 +2.3616879824122516e+04 -1.3483656841458208e+06 
+3.6000000000000019e+00 +4.3289455788449976e-01 +2.9618753949242757e-04 -4.2027695805689817e-02 +1.4725682921592820e+00 -1.5601483501719679e+02 +2.3614007325834056e+04 -1.3480959024530430e+06 
+3.7000000000000020e+00 +4.3289455431159918e-01 +2.9608877959344862e-04 -4.2010936644872640e-02 +1.4713494904863453e+00 -1.5597545995179652e+02 +2.3611095244870845e+04 -1.3478189203335049e+06 
+3.8000000000000020e+00 +4.3289455063929250e-01 +2.9598806677989261e-04 -4.1993898673023611e-02 +1.4700971011000015e+00 -1.5593257615095530e+02 +2.3608092664235755e+04 -1.3475461243962010e+06 
+3.9000000000000021e+00 +4.3289454686828766e-01 +2.9588558700635007e-04 -4.1976748416069881e-02 +1.4688111611801502e+00 -1.5588301656255524e+02 +2.3604948961299429e+04 -1.3472890573037646e+06 
+4.0000000000000018e+00 +4.3289454299929614e-01 +2.9578153035020484e-04 -4.1959652856278513e-02 +1.4674915279278011e+00 -1.5582360087603280e+02 +2.3601615385495636e+04 -1.3470594015642190e+06 
+4.1000000000000014e+00 +4.3289453903273845e-01 +2.9567597973826666e-04 -4.1942720019423271e-02 +1.4661396686562211e+00 -1.5575235568374026e+02 +2.3598063324865590e+04 -1.3468652253251395e+06 
+4.2000000000000011e+00 +4.3289453496860469e-01 +2.9556884920497599e-04 -4.1925951811106817e-02 +1.4647600456869951e+00 -1.5566963382741534e+02 +2.3594287628307855e+04 -1.3467057740968142e+06 
+4.3000000000000007e+00 +4.3289453080684959e-01 +2.9546005133591007e-04 -4.1909335929305777e-02 +1.4633568452288943e+00 -1.5557614208171759e+02 +2.3590289064770768e+04 -1.3465785047991967e+06 
+4.4000000000000004e+00 +4.3289452654744620e-01 +2.9534949979909228e-04 -4.1892862353524116e-02 +1.4619342242269409e+00 -1.5547254543553802e+02 +2.3586068557152386e+04 -1.3464810601065692e+06 
+4.5000000000000000e+00 +4.3289452219034469e-01 +2.9523710583862975e-04 -4.1876518008688156e-02 +1.4604964201770207e+00 -1.5535956979839355e+02 +2.3581626493065069e+04 -1.3464107814702888e+06 
+4.5999999999999996e+00 +4.3289451773550724e-01 +2.9512278023716284e-04 -4.1860291196984145e-02 +1.4590476986316212e+00 -1.5523791736495832e+02 +2.3576963015229787e+04 -1.3463651098424417e+06 
+4.6999999999999993e+00 +4.3289451318287803e-01 +2.9500643244831116e-04 -4.1844167725374498e-02 +1.4575923716104142e+00 -1.5510834021593351e+02 +2.3572077927856579e+04 -1.3463412382742926e+06 
+4.7999999999999989e+00 +4.3289450853240857e-01 +2.9488796952189113e-04 -4.1828134249604382e-02 +1.4561348391439777e+00 -1.5497157672672179e+02 +2.3566970427811917e+04 -1.3463364109704460e+06 
+4.8999999999999986e+00 +4.3289450378404620e-01 +2.9476729763802721e-04 -4.1812176770081581e-02 +1.4546795364621063e+00 -1.5482837991213157e+02 +2.3561639426663060e+04 -1.3463477910569601e+06 
+4.9999999999999982e+00 +4.3289449893770410e-01 +2.9464431488876550e-04 -4.1796275943963339e-02 +1.4532311980601509e+00 -1.5467961789343985e+02 +2.3556081342861973e+04 -1.3463719010078583e+06 
+5.0999999999999979e+00 +4.3289449399289043e-01 +2.9451888308905611e-04 -4.1780358317087291e-02 +1.4517951180389612e+00 -1.5452709859780217e+02 +2.3550276879240726e+04 -1.3463999066394148e+06 
+5.1999999999999975e+00 +4.3289448894881999e-01 +2.9439090665227041e-04 -4.1764320534211204e-02 +1.4503736985089417e+00 -1.5437291238672358e+02 +2.3544211559619533e+04 -1.3464213815635731e+06 
+5.2999999999999972e+00 +4.3289448380473666e-01 +2.9426029263097101e-04 -4.1748065173611036e-02 +1.4489691076762696e+00 -1.5421899762024486e+02 +2.3537870546763417e+04 -1.3464268000841564e+06 
+5.3999999999999968e+00 +4.3289447855987195e-01 +2.9412694547863708e-04 -4.1731493129239301e-02 +1.4475835931022991e+00 -1.5406732350699099e+02 +2.3531238507381844e+04 -1.3464065036155598e+06 
+5.4999999999999964e+00 +4.3289447321347868e-01 +2.9399077335745305e-04 -4.1714508392686603e-02 +1.4462192820108046e+00 -1.5391979718128385e+02 +2.3524300865891382e+04 -1.3463511391614405e+06 
+5.5999999999999961e+00 +4.3289446776479829e-01 +2.9385168424530471e-04 -4.1697013551795774e-02 +1.4448783023639142e+00 -1.5377835079388782e+02 +2.3517043088003433e+04 -1.3462512449341563e+06 
+5.6999999999999957e+00 +4.3289446221308076e-01 +2.9370958698247138e-04 -4.1678912461298019e-02 +1.4435627441283589e+00 -1.5364488959410090e+02 +2.3509450927960104e+04 -1.3460974981787221e+06 
+5.7999999999999954e+00 +4.3289445655757430e-01 +2.9356439166126582e-04 -4.1660108803570357e-02 +1.4422746515802713e+00 -1.5352132080805617e+02 +2.3501510460465528e+04 -1.3458805753439576e+06 
+5.8999999999999950e+00 +4.3289445079753691e-01 +2.9341600966471582e-04 -4.1640507890143973e-02 +1.4410160199279207e+00 -1.5340951652646632e+02 +2.3493208115306588e+04 -1.3455913348306222e+06 
+5.9999999999999947e+00 +4.3289444493226470e-01 +2.9326437241928552e-04 -4.1620021820857868e-02 +1.4397881137652311e+00 -1.5331118865340329e+02 +2.3484535399292698e+04 -1.3452215342405008e+06 
+6.0999999999999943e+00 +4.3289443896160867e-01 +2.9310967779373021e-04 -4.1598673314164274e-02 +1.4385836139272878e+00 -1.5322558782595218e+02 +2.3475541603233716e+04 -1.3447761407069468e+06 
+6.1999999999999940e+00 +4.3289443288554974e-01 +2.9295235187373292e-04 -4.1576557342996728e-02 +1.4373894633329651e+00 -1.5315027233865118e+02 +2.3466311781320761e+04 -1.3442692971895561e+06 
+6.2999999999999936e+00 +4.3289442670397804e-01 +2.9279282631189906e-04 -4.1553765068717552e-02 +1.4361929817173258e+00 -1.5308280140008569e+02 +2.3456927921921775e+04 -1.3437153217646475e+06 
+6.3999999999999932e+00 +4.3289442041677306e-01 +2.9263153170028147e-04 -4.1530386452184959e-02 +1.4349815393744672e+00 -1.5302075617272436e+02 +2.3447471660839725e+04 -1.3431284275638063e+06 
+6.4999999999999929e+00 +4.3289441402382745e-01 +2.9246890074503617e-04 -4.1506513002359649e-02 +1.4337424551139220e+00 -1.5296168943113094e+02 +2.3438024879638779e+04 -1.3425229567859187e+06 
+6.5999999999999925e+00 +4.3289440752503150e-01 +2.9230536303326044e-04 -4.1482235815103068e-02 +1.4324631427768544e+00 -1.5290316365159600e+02 +2.3428668876537504e+04 -1.3419131977506171e+06 
+6.6999999999999922e+00 +4.3289440092026232e-01 +2.9214135052076952e-04 -4.1457644320838295e-02 +1.4311309581779976e+00 -1.5284277350613547e+02 +2.3419485230479273e+04 -1.3413132822936159e+06 
+6.7999999999999918e+00 +4.3289439420941123e-01 +2.9197729333457192e-04 -4.1432829712150801e-02 +1.4297333187677068e+00 -1.5277808193806786e+02 +2.3410555113828304e+04 -1.3407374837720655e+06 
+6.8999999999999915e+00 +4.3289438739237307e-01 +2.9181362237008367e-04 -4.1407883574883772e-02 +1.4282576256863553e+00 -1.5270664514866479e+02 +2.3401959749391688e+04 -1.3402001029172607e+06 
+6.9999999999999911e+00 +4.3289438046900736e-01 +2.9165074777684979e-04 -4.1382890611811926e-02 +1.4266921839064219e+00 -1.5262620312399233e+02 +2.3393774052953842e+04 -1.3397143736401752e+06 
+7.0999999999999908e+00 +4.3289437343918430e-01 +2.9148872077031351e-04 -4.1357880861454879e-02 +1.4250392480373613e+00 -1.5253632403166358e+02 +2.3385982482290245e+04 -1.3392823939339053e+06 
+7.1999999999999904e+00 +4.3289436630324107e-01 +2.9132720391235610e-04 -4.1332857991273272e-02 +1.4233136438209062e+00 -1.5243788283286008e+02 +2.3378494824977992e+04 -1.3388978003074839e+06 
+7.2999999999999901e+00 +4.3289435906161156e-01 +2.9116584452913539e-04 -4.1307826352108695e-02 +1.4215298618752912e+00 -1.5233187562952818e+02 +2.3371225902113187e+04 -1.3385531757846850e+06 
+7.3999999999999897e+00 +4.3289435171472512e-01 +2.9100429271357932e-04 -4.1282789428770686e-02 +1.4197022603214731e+00 -1.5221932136036861e+02 +2.3364091565104729e+04 -1.3382409640998326e+06 
+7.4999999999999893e+00 +4.3289434426301693e-01 +2.9084219727457420e-04 -4.1257751496804052e-02 +1.4178452298592059e+00 -1.5210122339165358e+02 +2.3357007498286861e+04 -1.3379536847484577e+06 
+7.5999999999999890e+00 +4.3289433670691613e-01 +2.9067920492174186e-04 -4.1232715941401439e-02 +1.4159732216343834e+00 -1.5197860264525846e+02 +2.3349889046544027e+04 -1.3376837729341085e+06 
+7.6999999999999886e+00 +4.3289432904685621e-01 +2.9051496514842187e-04 -4.1207686764061321e-02 +1.4141005996143134e+00 -1.5185246743053870e+02 +2.3342652081592201e+04 -1.3374237263965795e+06 
+7.7999999999999883e+00 +4.3289432128325378e-01 +2.9034912248205073e-04 -4.1182665824930471e-02 +1.4122418699763954e+00 -1.5172386646807317e+02 +2.3335211668767090e+04 -1.3371658534998710e+06 
+7.8999999999999879e+00 +4.3289431341654322e-01 +2.9018132392166670e-04 -4.1157656873288276e-02 +1.4104114636435041e+00 -1.5159381466716121e+02 +2.3327483326265079e+04 -1.3369026173029656e+06 
+7.9999999999999876e+00 +4.3289430544712953e-01 +2.9001122970415713e-04 -4.1132661883342789e-02 +1.4086230813097831e+00 -1.5146331170711687e+02 +2.3319388958010761e+04 -1.3366268251987370e+06 
+8.0999999999999872e+00 +4.3289429737512569e-01 +2.8983881926602378e-04 -4.1107701330078086e-02 +1.4068791303608710e+00 -1.5133245711688554e+02 +2.3310929704425562e+04 -1.3363379237722980e+06 
+8.1999999999999869e+00 +4.3289428920014544e-01 +2.8966448332108354e-04 -4.1082819538565268e-02 +1.4051708537294409e+00 -1.5120041131326363e+02 +2.3302171937982414e+04 -1.3360414137495928e+06 
+8.2999999999999865e+00 +4.3289428092175214e-01 +2.8948864120634753e-04 -4.1058063633487497e-02 +1.4034894195152330e+00 -1.5106619877029050e+02 +2.3293178472161075e+04 -1.3357438570297256e+06 
+8.3999999999999861e+00 +4.3289427253950352e-01 +2.8931170943551185e-04 -4.1033479954295696e-02 +1.4018261374111765e+00 -1.5092885257345336e+02 +2.3284010835749086e+04 -1.3354518216830199e+06 
+8.4999999999999858e+00 +4.3289426405296172e-01 +2.8913410400170062e-04 -4.1009115611594898e-02 +1.4001723319981845e+00 -1.5078738999092994e+02 +2.3274730452839045e+04 -1.3351719525290108e+06 
+8.5999999999999854e+00 +4.3289425546170723e-01 +2.8895624165993158e-04 -4.0985019984765086e-02 +1.3985192987636348e+00 -1.5064078492672414e+02 +2.3265398915040001e+04 -1.3349110981404772e+06 
+8.6999999999999851e+00 +4.3289424676530230e-01 +2.8877853944515674e-04 -4.0961239923891862e-02 +1.3968583257684954e+00 -1.5048805976461566e+02 +2.3256077834311280e+04 -1.3346758765684245e+06 
+8.7999999999999847e+00 +4.3289423796331278e-01 +2.8860141444551771e-04 -4.0937822841474132e-02 +1.3951806944007934e+00 -1.5032822576849651e+02 +2.3246828855178861e+04 -1.3344729573503020e+06 
+8.8999999999999844e+00 +4.3289422905531705e-01 +2.8842528451229483e-04 -4.0914817797189980e-02 +1.3934776622713718e+00 -1.5016026206319418e+02 +2.3237713740339968e+04 -1.3343091630891729e+06 
+8.9999999999999840e+00 +4.3289422004080574e-01 +2.8825051719634054e-04 -4.0892256875547671e-02 +1.3917424579838946e+00 -1.4998355287493078e+02 +2.3228776722852341e+04 -1.3341887121204380e+06 
+9.0999999999999837e+00 +4.3289421091876912e-01 +2.8807708132343510e-04 -4.0870043199021280e-02 +1.3899779465168978e+00 -1.4980000261150991e+02 +2.3219983002131921e+04 -1.3341014435580519e+06 
+9.1999999999999833e+00 +4.3289420168801496e-01 +2.8790457993530444e-04 -4.0847990017499149e-02 +1.3881928574887079e+00 -1.4961304987530443e+02 +2.3211266141748420e+04 -1.3340297670004298e+06 
+9.2999999999999829e+00 +4.3289419234731413e-01 +2.8773259043667748e-04 -4.0825903562555450e-02 +1.3863960191280340e+00 -1.4942627090926899e+02 +2.3202564086012364e+04 -1.3339551433866068e+06 
+9.3999999999999826e+00 +4.3289418289546178e-01 +2.8756069623902348e-04 -4.0803592997671050e-02 +1.3845959906373373e+00 -1.4924319131789764e+02 +2.3193817271795939e+04 -1.3338592101409363e+06 
+9.4999999999999822e+00 +4.3289417333123825e-01 +2.8738848117575762e-04 -4.0780865875397053e-02 +1.3828012963262541e+00 -1.4906736363782707e+02 +2.3184966490646857e+04 -1.3337234975693873e+06 
+9.5999999999999819e+00 +4.3289416365343236e-01 +2.8721553294592573e-04 -4.0757531254216564e-02 +1.3810203313359126e+00 -1.4890230610504346e+02 +2.3175953422335406e+04 -1.3335297236008304e+06 
+9.6999999999999815e+00 +4.3289415386084079e-01 +2.8704144102449398e-04 -4.0733399485023497e-02 +1.3792614185034160e+00 -1.4875150782410779e+02 +2.3166720314588692e+04 -1.3332597677907678e+06 
+9.7999999999999812e+00 +4.3289414395225351e-01 +2.8686579603668034e-04 -4.0708280335998728e-02 +1.3775328239503386e+00 -1.4861846464190492e+02 +2.3157209906871172e+04 -1.3328954999917159e+06 
+9.8999999999999808e+00 +4.3289413392647136e-01 +2.8668819326823708e-04 -4.0681985253961488e-02 +1.3758426612618235e+00 -1.4850663556152648e+02 +2.3147365965135941e+04 -1.3324189892974726e+06 
+9.9999999999999805e+00 +4.3289412378268943e-01 +2.8650838641524717e-04 -4.0654393948876551e-02 +1.3741934087103513e+00 -1.4841796945625518e+02 +2.3137178444609886e+04 -1.3318210742625021e+06 
+1.0099999999999980e+01 +4.3289411352205642e-01 +2.8632669074585797e-04 -4.0625717355442272e-02 +1.3725776015658560e+00 -1.4834850879732673e+02 +2.3126726761650247e+04 -1.3311231489993862e+06 
