# trajectory
# s[mm] rx[mm] ry[mm] rz[mm] px[rad] py[rad] pz[rad]
0.0000000000000000e+00 -4.6467000000000001e+00 +0.0000000000000000e+00 +0.0000000000000000e+00 +0.0000000000000000e+00 +0.0000000000000000e+00 +1.0000000000000000e+00
1.0000000000000001e-01 -4.6466956739984449e+00 +0.0000000000000000e+00 +9.9999999875238083e-02 +8.6520031043777593e-05 +0.0000000000000000e+00 +9.9999999625714209e-01
2.0000000000000001e-01 -4.6466826959938130e+00 +0.0000000000000000e+00 +1.9999999900190457e-01 +1.7304006142031446e-04 +0.0000000000000000e+00 +9.9999998502856846e-01
3.0000000000000004e-01 -4.6466610659862049e+00 +0.0000000000000000e+00 +2.9999999663142790e-01 +2.5956009046242611e-04 +0.0000000000000000e+00 +9.9999996631427912e-01
4.0000000000000002e-01 -4.6466307839757874e+00 +0.0000000000000000e+00 +3.9999999201523651e-01 +3.4608011750298935e-04 +0.0000000000000000e+00 +9.9999994011427429e-01
5.0000000000000000e-01 -4.6465918499627934e+00 +0.0000000000000000e+00 +4.9999998440475890e-01 +4.3260014187494181e-04 +0.0000000000000000e+00 +9.9999990642855419e-01
5.9999999999999998e-01 -4.6465442639475238e+00 +0.0000000000000000e+00 +5.9999997305142350e-01 +5.1912016291128242e-04 +0.0000000000000000e+00 +9.9999986525711904e-01
6.9999999999999996e-01 -4.6464880259303447e+00 +0.0000000000000000e+00 +6.9999995720665886e-01 +6.0564017994507117e-04 +0.0000000000000000e+00 +9.9999981659996928e-01
7.9999999999999993e-01 -4.6464231359116903e+00 +0.0000000000000000e+00 +7.9999993612189357e-01 +6.9216019230942949e-04 +0.0000000000000000e+00 +9.9999976045710526e-01
8.9999999999999991e-01 -4.6463495938920607e+00 +0.0000000000000000e+00 +8.9999990904855620e-01 +7.7868019933754031e-04 +0.0000000000000000e+00 +9.9999969682852752e-01
9.9999999999999989e-01 -4.6462673998720225e+00 +0.0000000000000000e+00 +9.9999987523807532e-01 +8.6520020036264878e-04 +0.0000000000000000e+00 +9.9999962571423651e-01
1.0999999999999999e+00 -4.6461765538522100e+00 +0.0000000000000000e+00 +1.0999998339418797e+00 +9.5172019471805470e-04 +0.0000000000000000e+00 +9.9999954711423289e-01
1.2000000000000000e+00 -4.6460770558333229e+00 +0.0000000000000000e+00 +1.1999997844113981e+00 +1.0382401817370249e-03 +0.0000000000000000e+00 +9.9999946102851722e-01
1.3000000000000000e+00 -4.6459689058161286e+00 +0.0000000000000000e+00 +1.2999997258980593e+00 +1.1247601607527059e-03 +0.0000000000000000e+00 +9.9999936745709028e-01
1.4000000000000001e+00 -4.6458521038014613e+00 +0.0000000000000000e+00 +1.3999996576532925e+00 +1.2112801310981153e-03 +0.0000000000000000e+00 +9.9999926639995285e-01
1.5000000000000002e+00 -4.6457266497902205e+00 +0.0000000000000000e+00 +1.4999995789285263e+00 +1.2978000921061419e-03 +0.0000000000000000e+00 +9.9999915785710580e-01
1.6000000000000003e+00 -4.6455925437833736e+00 +0.0000000000000000e+00 +1.5999994889751901e+00 +1.3843200431095451e-03 +0.0000000000000000e+00 +9.9999904182855004e-01
1.7000000000000004e+00 -4.6454497857819543e+00 +0.0000000000000000e+00 +1.6999993870447128e+00 +1.4708399834409542e-03 +0.0000000000000000e+00 +9.9999891831428644e-01
1.8000000000000005e+00 -4.6452983757870632e+00 +0.0000000000000000e+00 +1.7999992723885239e+00 +1.5573599124328685e-03 +0.0000000000000000e+00 +9.9999878731431613e-01
1.9000000000000006e+00 -4.6451383137998681e+00 +0.0000000000000000e+00 +1.8999991442580526e+00 +1.6438798294176563e-03 +0.0000000000000000e+00 +9.9999864882864020e-01
2.0000000000000004e+00 -4.6449695998216027e+00 +0.0000000000000000e+00 +1.9999990019047285e+00 +1.7303997337275538e-03 +0.0000000000000000e+00 +9.9999850285725989e-01
2.1000000000000005e+00 -4.6447922338535674e+00 +0.0000000000000000e+00 +2.0999988445799813e+00 +1.8169196246946785e-03 +0.0000000000000000e+00 +9.9999834940017629e-01
2.2000000000000006e+00 -4.6446062158971309e+00 +0.0000000000000000e+00 +2.1999986715352406e+00 +1.9034395016511716e-03 +0.0000000000000000e+00 +9.9999818845739075e-01
2.3000000000000007e+00 -4.6444115459537265e+00 +0.0000000000000000e+00 +2.2999984820219361e+00 +1.9899593639293432e-03 +0.0000000000000000e+00 +9.9999802002890459e-01
2.4000000000000008e+00 -4.6442082240248563e+00 +0.0000000000000000e+00 +2.3999982752914981e+00 +2.0764792108616849e-03 +0.0000000000000000e+00 +9.9999784411471926e-01
2.5000000000000009e+00 -4.6439962501120879e+00 +0.0000000000000000e+00 +2.4999980505953565e+00 +2.1629990417808709e-03 +0.0000000000000000e+00 +9.9999766071483620e-01
2.6000000000000010e+00 -4.6437756242170565e+00 +0.0000000000000000e+00 +2.5999978071849421e+00 +2.2495188560197584e-03 +0.0000000000000000e+00 +9.9999746982925708e-01
2.7000000000000011e+00 -4.6435463463414628e+00 +0.0000000000000000e+00 +2.6999975443116848e+00 +2.3360386529113885e-03 +0.0000000000000000e+00 +9.9999727145798334e-01
2.8000000000000012e+00 -4.6433084164870753e+00 +0.0000000000000000e+00 +2.7999972612270154e+00 +2.4225584317889869e-03 +0.0000000000000000e+00 +9.9999706560101664e-01
2.9000000000000012e+00 -4.6430618346557280e+00 +0.0000000000000000e+00 +2.8999969571823652e+00 +2.5090781919859637e-03 +0.0000000000000000e+00 +9.9999685225835877e-01
3.0000000000000013e+00 -4.6428066008493225e+00 +0.0000000000000000e+00 +2.9999966314291644e+00 +2.5955979328359160e-03 +0.0000000000000000e+00 +9.9999663143001161e-01
3.1000000000000014e+00 -4.6425427150698280e+00 +0.0000000000000000e+00 +3.0999962832188444e+00 +2.6821176536726099e-03 +0.0000000000000000e+00 +9.9999640311597682e-01
3.2000000000000015e+00 -4.6422701773192774e+00 +0.0000000000000000e+00 +3.1999959118028367e+00 +2.7686373538297936e-03 +0.0000000000000000e+00 +9.9999616731625640e-01
3.3000000000000016e+00 -4.6419889875997731e+00 +0.0000000000000000e+00 +3.2999955164325727e+00 +2.8551570326410076e-03 +0.0000000000000000e+00 +9.9999592403085236e-01
3.4000000000000017e+00 -4.6416991459134831e+00 +0.0000000000000000e+00 +3.3999950963594845e+00 +2.9416766894395682e-03 +0.0000000000000000e+00 +9.9999567325976668e-01
3.5000000000000018e+00 -4.6414006522626412e+00 +0.0000000000000000e+00 +3.4999946508350037e+00 +3.0281963235585662e-03 +0.0000000000000000e+00 +9.9999541500300149e-01
3.6000000000000019e+00 -4.6410935066495496e+00 +0.0000000000000000e+00 +3.5999941791105625e+00 +3.1147159343308663e-03 +0.0000000000000000e+00 +9.9999514926055899e-01
3.7000000000000020e+00 -4.6407777090765761e+00 +0.0000000000000000e+00 +3.6999936804375930e+00 +3.2012355210891070e-03 +0.0000000000000000e+00 +9.9999487603244130e-01
3.8000000000000020e+00 -4.6404532595461552e+00 +0.0000000000000000e+00 +3.7999931540675282e+00 +3.2877550831656999e-03 +0.0000000000000000e+00 +9.9999459531865087e-01
3.9000000000000021e+00 -4.6401201580607880e+00 +0.0000000000000000e+00 +3.8999925992518008e+00 +3.3742746198928294e-03 +0.0000000000000000e+00 +9.9999430711918991e-01
4.0000000000000018e+00 -4.6397784046230433e+00 +0.0000000000000000e+00 +3.9999920152418440e+00 +3.4607941306024508e-03 +0.0000000000000000e+00 +9.9999401143406086e-01
4.1000000000000014e+00 -4.6394279992355569e+00 +0.0000000000000000e+00 +4.0999914012890910e+00 +3.5473136146263063e-03 +0.0000000000000000e+00 +9.9999370826326628e-01
4.2000000000000011e+00 -4.6390689419010300e+00 +0.0000000000000000e+00 +4.1999907566449757e+00 +3.6338330712960844e-03 +0.0000000000000000e+00 +9.9999339760680872e-01
4.3000000000000007e+00 -4.6387012326222319e+00 +0.0000000000000000e+00 +4.2999900805609315e+00 +3.7203524999435840e-03 +0.0000000000000000e+00 +9.9999307946469074e-01
4.4000000000000004e+00 -4.6383248714019976e+00 +0.0000000000000000e+00 +4.3999893722883918e+00 +3.8068718999007276e-03 +0.0000000000000000e+00 +9.9999275383691499e-01
4.5000000000000000e+00 -4.6379398582432305e+00 +0.0000000000000000e+00 +4.4999886310787920e+00 +3.8933912704995615e-03 +0.0000000000000000e+00 +9.9999242072348427e-01
4.5999999999999996e+00 -4.6375461931488990e+00 +0.0000000000000000e+00 +4.5999878561835663e+00 +3.9799106110722567e-03 +0.0000000000000000e+00 +9.9999208012440133e-01
4.6999999999999993e+00 -4.6371438761220389e+00 +0.0000000000000000e+00 +4.6999870468541500e+00 +4.0664299209511078e-03 +0.0000000000000000e+00 +9.9999173203966907e-01
4.7999999999999989e+00 -4.6367329071657535e+00 +0.0000000000000000e+00 +4.7999862023419784e+00 +4.1529491994685332e-03 +0.0000000000000000e+00 +9.9999137646929037e-01
4.8999999999999986e+00 -4.6363132862832126e+00 +0.0000000000000000e+00 +4.8999853218984866e+00 +4.2394684459570739e-03 +0.0000000000000000e+00 +9.9999101341326824e-01
4.9999999999999982e+00 -4.6358850134776519e+00 +0.0000000000000000e+00 +4.9999844047751107e+00 +4.3259876597493965e-03 +0.0000000000000000e+00 +9.9999064287160566e-01
5.0999999999999979e+00 -4.6354480887523746e+00 +0.0000000000000000e+00 +5.0999834502232870e+00 +4.4125068401782777e-03 +0.0000000000000000e+00 +9.9999026484430575e-01
5.1999999999999975e+00 -4.6350025121107503e+00 +0.0000000000000000e+00 +5.1999824574944515e+00 +4.4990259865764770e-03 +0.0000000000000000e+00 +9.9998987933137173e-01
5.2999999999999972e+00 -4.6345482835562155e+00 +0.0000000000000000e+00 +5.2999814258400404e+00 +4.5855450982766098e-03 +0.0000000000000000e+00 +9.9998948633280693e-01
5.3999999999999968e+00 -4.6340854030922740e+00 +0.0000000000000000e+00 +5.3999803545114915e+00 +4.6720641746111329e-03 +0.0000000000000000e+00 +9.9998908584861446e-01
5.4999999999999964e+00 -4.6336138707224945e+00 +0.0000000000000000e+00 +5.4999792427602419e+00 +4.7585832149123486e-03 +0.0000000000000000e+00 +9.9998867787879786e-01
5.5999999999999961e+00 -4.6331336864505150e+00 +0.0000000000000000e+00 +5.5999780898377303e+00 +4.8451022185124022e-03 +0.0000000000000000e+00 +9.9998826242336047e-01
5.6999999999999957e+00 -4.6326448502800384e+00 +0.0000000000000000e+00 +5.6999768949953937e+00 +4.9316211847432847e-03 +0.0000000000000000e+00 +9.9998783948230574e-01
5.7999999999999954e+00 -4.6321473622148348e+00 +0.0000000000000000e+00 +5.7999756574846710e+00 +5.0181401129368334e-03 +0.0000000000000000e+00 +9.9998740905563732e-01
5.8999999999999950e+00 -4.6316412222587413e+00 +0.0000000000000000e+00 +5.8999743765570010e+00 +5.1046590024247315e-03 +0.0000000000000000e+00 +9.9998697114335877e-01
5.9999999999999947e+00 -4.6311264304156623e+00 +0.0000000000000000e+00 +5.9999730514638223e+00 +5.1911778525385111e-03 +0.0000000000000000e+00 +9.9998652574547375e-01
6.0999999999999943e+00 -4.6306029866895688e+00 +0.0000000000000000e+00 +6.0999716814565756e+00 +5.2776966626095576e-03 +0.0000000000000000e+00 +9.9998607286198604e-01
6.1999999999999940e+00 -4.6300708910844977e+00 +0.0000000000000000e+00 +6.1999702657866997e+00 +5.3642154319692012e-03 +0.0000000000000000e+00 +9.9998561249289941e-01
6.2999999999999936e+00 -4.6295301436045539e+00 +0.0000000000000000e+00 +6.2999688037056352e+00 +5.4507341599487960e-03 +0.0000000000000000e+00 +9.9998514463821775e-01
6.3999999999999932e+00 -4.6289807442539095e+00 +0.0000000000000000e+00 +6.3999672944648234e+00 +5.5372528458797303e-03 +0.0000000000000000e+00 +9.9998466929794505e-01
6.4999999999999929e+00 -4.6284226930368018e+00 +0.0000000000000000e+00 +6.4999657373157049e+00 +5.6237714890934251e-03 +0.0000000000000000e+00 +9.9998418647208531e-01
6.5999999999999925e+00 -4.6278559899575367e+00 +0.0000000000000000e+00 +6.5999641315097213e+00 +5.7102900889213336e-03 +0.0000000000000000e+00 +9.9998369616064253e-01
6.6999999999999922e+00 -4.6272806350204858e+00 +0.0000000000000000e+00 +6.6999624762983139e+00 +5.7968086446949394e-03 +0.0000000000000000e+00 +9.9998319836362082e-01
6.7999999999999918e+00 -4.6266966282300883e+00 +0.0000000000000000e+00 +6.7999607709329259e+00 +5.8833271557457564e-03 +0.0000000000000000e+00 +9.9998269308102439e-01
6.8999999999999915e+00 -4.6261039695908499e+00 +0.0000000000000000e+00 +6.8999590146649998e+00 +5.9698456214053288e-03 +0.0000000000000000e+00 +9.9998218031285757e-01
6.9999999999999911e+00 -4.6255026591073429e+00 +0.0000000000000000e+00 +6.9999572067459788e+00 +6.0563640410052277e-03 +0.0000000000000000e+00 +9.9998166005912459e-01
7.0999999999999908e+00 -4.6248926967842063e+00 +0.0000000000000000e+00 +7.0999553464273060e+00 +6.1428824138770478e-03 +0.0000000000000000e+00 +9.9998113231982988e-01
7.1999999999999904e+00 -4.6242740826261475e+00 +0.0000000000000000e+00 +7.1999534329604256e+00 +6.2294007393523610e-03 +0.0000000000000000e+00 +9.9998059709497789e-01
7.2999999999999901e+00 -4.6236468166379385e+00 +0.0000000000000000e+00 +7.2999514655967825e+00 +6.3159190167626708e-03 +0.0000000000000000e+00 +9.9998005438457305e-01
7.3999999999999897e+00 -4.6230108988244192e+00 +0.0000000000000000e+00 +7.3999494435878219e+00 +6.4024372454394079e-03 +0.0000000000000000e+00 +9.9997950418861992e-01
7.4999999999999893e+00 -4.6223663291904966e+00 +0.0000000000000000e+00 +7.4999473661849887e+00 +6.4889554247139327e-03 +0.0000000000000000e+00 +9.9997894650712316e-01
7.5999999999999890e+00 -4.6217131077411446e+00 +0.0000000000000000e+00 +7.5999452326397288e+00 +6.5754735539175335e-03 +0.0000000000000000e+00 +9.9997838134008754e-01
7.6999999999999886e+00 -4.6210512344814036e+00 +0.0000000000000000e+00 +7.6999430422034880e+00 +6.6619916323814301e-03 +0.0000000000000000e+00 +9.9997780868751773e-01
7.7999999999999883e+00 -4.6203807094163816e+00 +0.0000000000000000e+00 +7.7999407941277141e+00 +6.7485096594367740e-03 +0.0000000000000000e+00 +9.9997722854941862e-01
7.8999999999999879e+00 -4.6197015325512520e+00 +0.0000000000000000e+00 +7.8999384876638539e+00 +6.8350276344146471e-03 +0.0000000000000000e+00 +9.9997664092579508e-01
7.9999999999999876e+00 -4.6190137038912571e+00 +0.0000000000000000e+00 +7.9999361220633558e+00 +6.9215455566460646e-03 +0.0000000000000000e+00 +9.9997604581665200e-01
8.0999999999999872e+00 -4.6183172234417036e+00 +0.0000000000000000e+00 +8.0999336965776667e+00 +7.0080634254619809e-03 +0.0000000000000000e+00 +9.9997544322199450e-01
8.1999999999999869e+00 -4.6176120912079677e+00 +0.0000000000000000e+00 +8.1999312104582369e+00 +7.0945812401933261e-03 +0.0000000000000000e+00 +9.9997483314182756e-01
8.2999999999999865e+00 -4.6168983071954903e+00 +0.0000000000000000e+00 +8.2999286629565159e+00 +7.1810990001710505e-03 +0.0000000000000000e+00 +9.9997421557615640e-01
8.3999999999999861e+00 -4.6161758714097809e+00 +0.0000000000000000e+00 +8.3999260533239521e+00 +7.2676167047261249e-03 +0.0000000000000000e+00 +9.9997359052498624e-01
8.4999999999999858e+00 -4.6154447838564145e+00 +0.0000000000000000e+00 +8.4999233808119961e+00 +7.3541343531895393e-03 +0.0000000000000000e+00 +9.9997295798832231e-01
8.5999999999999854e+00 -4.6147050445410347e+00 +0.0000000000000000e+00 +8.5999206446720997e+00 +7.4406519448923037e-03 +0.0000000000000000e+00 +9.9997231796616992e-01
8.6999999999999851e+00 -4.6139566534693506e+00 +0.0000000000000000e+00 +8.6999178441557135e+00 +7.5271694791654454e-03 +0.0000000000000000e+00 +9.9997167045853441e-01
8.7999999999999847e+00 -4.6131996106471380e+00 +0.0000000000000000e+00 +8.7999149785142894e+00 +7.6136869553400099e-03 +0.0000000000000000e+00 +9.9997101546542133e-01
8.8999999999999844e+00 -4.6124339160802412e+00 +0.0000000000000000e+00 +8.8999120469992814e+00 +7.7002043727470593e-03 +0.0000000000000000e+00 +9.9997035298683623e-01
8.9999999999999840e+00 -4.6116595697745701e+00 +0.0000000000000000e+00 +8.9999090488621416e+00 +7.7867217307176712e-03 +0.0000000000000000e+00 +9.9996968302278455e-01
9.0999999999999837e+00 -4.6108765717361013e+00 +0.0000000000000000e+00 +9.0999059833543239e+00 +7.8732390285829301e-03 +0.0000000000000000e+00 +9.9996900557327206e-01
9.1999999999999833e+00 -4.6100849219708788e+00 +0.0000000000000000e+00 +9.1999028497272821e+00 +7.9597562656738615e-03 +0.0000000000000000e+00 +9.9996832063830443e-01
9.2999999999999829e+00 -4.6092846204850142e+00 +0.0000000000000000e+00 +9.2998996472324702e+00 +8.0462734413213662e-03 +0.0000000000000000e+00 +9.9996762821788743e-01
9.3999999999999826e+00 -4.6084756672846847e+00 +0.0000000000000000e+00 +9.3998963751213438e+00 +8.1327905548562122e-03 +0.0000000000000000e+00 +9.9996692831202694e-01
9.4999999999999822e+00 -4.6076580623761352e+00 +0.0000000000000000e+00 +9.4998930326453603e+00 +8.2193076056090390e-03 +0.0000000000000000e+00 +9.9996622092072884e-01
9.5999999999999819e+00 -4.6068318057656779e+00 +0.0000000000000000e+00 +9.5998896190559755e+00 +8.3058245929103561e-03 +0.0000000000000000e+00 +9.9996550604399914e-01
9.6999999999999815e+00 -4.6059968974596908e+00 +0.0000000000000000e+00 +9.6998861336046467e+00 +8.3923415160905429e-03 +0.0000000000000000e+00 +9.9996478368184383e-01
9.7999999999999812e+00 -4.6051533374646194e+00 +0.0000000000000000e+00 +9.7998825755428314e+00 +8.4788583744798540e-03 +0.0000000000000000e+00 +9.9996405383426901e-01
9.8999999999999808e+00 -4.6043011257869768e+00 +0.0000000000000000e+00 +9.8998789441219870e+00 +8.5653751674084153e-03 +0.0000000000000000e+00 +9.9996331650128090e-01
9.9999999999999805e+00 -4.6034402624333426e+00 +0.0000000000000000e+00 +9.9998752385935745e+00 +8.6518918942062283e-03 +0.0000000000000000e+00 +9.9996257168288571e-01
1.0099999999999980e+01 -4.6025707474103630e+00 +0.0000000000000000e+00 +1.0099871458209051e+01 +8.7384085542031777e-03 +0.0000000000000000e+00 +9.9996181937908968e-01
1.0199999999999980e+01 -4.6016925807247517e+00 +0.0000000000000000e+00 +1.0199867602219879e+01 +8.8249251467291193e-03 +0.0000000000000000e+00 +9.9996105958989923e-01
1.0299999999999979e+01 -4.6008057623832892e+00 +0.0000000000000000e+00 +1.0299863669877517e+01 +8.9114416711139639e-03 +0.0000000000000000e+00 +9.9996029231532069e-01
1.0399999999999979e+01 -4.5999102923928232e+00 +0.0000000000000000e+00 +1.0399859660433430e+01 +8.9979581266876867e-03 +0.0000000000000000e+00 +9.9995951755536061e-01
1.0499999999999979e+01 -4.5990061707602683e+00 +0.0000000000000000e+00 +1.0499855573139078e+01 +9.0844745127803238e-03 +0.0000000000000000e+00 +9.9995873531002555e-01
1.0599999999999978e+01 -4.5980933974926055e+00 +0.0000000000000000e+00 +1.0599851407245923e+01 +9.1709908287219786e-03 +0.0000000000000000e+00 +9.9995794557932216e-01
1.0699999999999978e+01 -4.5971719725968843e+00 +0.0000000000000000e+00 +1.0699847162005430e+01 +9.2575070738428120e-03 +0.0000000000000000e+00 +9.9995714836325700e-01
1.0799999999999978e+01 -4.5962418960802198e+00 +0.0000000000000000e+00 +1.0799842836669063e+01 +9.3440232474730506e-03 +0.0000000000000000e+00 +9.9995634366183694e-01
1.0899999999999977e+01 -4.5953031679497949e+00 +0.0000000000000000e+00 +1.0899838430488286e+01 +9.4305393489429786e-03 +0.0000000000000000e+00 +9.9995553147506866e-01
1.0999999999999977e+01 -4.5943557882128587e+00 +0.0000000000000000e+00 +1.0999833942714565e+01 +9.5170553775829440e-03 +0.0000000000000000e+00 +9.9995471180295914e-01
1.1099999999999977e+01 -4.5933997568767282e+00 +0.0000000000000000e+00 +1.1099829372599366e+01 +9.6035713327233454e-03 +0.0000000000000000e+00 +9.9995388464551527e-01
1.1199999999999976e+01 -4.5924350739487867e+00 +0.0000000000000000e+00 +1.1199824719394156e+01 +9.6900872136945551e-03 +0.0000000000000000e+00 +9.9995305000274393e-01
1.1299999999999976e+01 -4.5914617394364843e+00 +0.0000000000000000e+00 +1.1299819982350403e+01 +9.7766030198268416e-03 +0.0000000000000000e+00 +9.9995220787465233e-01
1.1399999999999975e+01 -4.5904797533473385e+00 +0.0000000000000000e+00 +1.1399815160719575e+01 +9.8631187504503552e-03 +0.0000000000000000e+00 +9.9995135826124748e-01
1.1499999999999975e+01 -4.5894891156889335e+00 +0.0000000000000000e+00 +1.1499810253753141e+01 +9.9496344048951354e-03 +0.0000000000000000e+00 +9.9995050116253659e-01
1.1599999999999975e+01 -4.5884898264689209e+00 +0.0000000000000000e+00 +1.1599805260702572e+01 +1.0036149982491109e-02 +0.0000000000000000e+00 +9.9994963657852698e-01
1.1699999999999974e+01 -4.5874818856950190e+00 +0.0000000000000000e+00 +1.1699800180819338e+01 +1.0122665482568086e-02 +0.0000000000000000e+00 +9.9994876450922587e-01
1.1799999999999974e+01 -4.5864652933750136e+00 +0.0000000000000000e+00 +1.1799795013354908e+01 +1.0209180904455765e-02 +0.0000000000000000e+00 +9.9994788495464071e-01
