# field on trajectory
# s[mm] rx[mm] ry[mm] rz[mm] bx[T] by[T] bz[T]
0.0000000000000000e+00 +4.6467000000000001e+00 +0.0000000000000000e+00 +0.0000000000000000e+00 +2.2388784347127245e-02 -4.1193893234266171e-01 +2.9007204667862631e-03
1.0000000000000001e-01 +4.6466958834127903e+00 +0.0000000000000000e+00 +9.9999999887024738e-02 +2.2388864885780083e-02 -4.1193891158205698e-01 +2.9007052956862580e-03
2.0000000000000001e-01 +4.6466835336514825e+00 +0.0000000000000000e+00 +1.9999999909619789e-01 +2.2388931157905096e-02 -4.1193888607253443e-01 +2.9006937141996996e-03
3.0000000000000004e-01 +4.6466629507166699e+00 +0.0000000000000000e+00 +2.9999999694966806e-01 +2.2388983952043837e-02 -4.1193885610356218e-01 +2.9006854754263086e-03
4.0000000000000002e-01 +4.6466341346090898e+00 +0.0000000000000000e+00 +3.9999999276958387e-01 +2.2389024056684345e-02 -4.1193882196457987e-01 +2.9006803324613819e-03
5.0000000000000000e-01 +4.6465970853296206e+00 +0.0000000000000000e+00 +4.9999998587809430e-01 +2.2389052260277788e-02 -4.1193878394501032e-01 +2.9006780383982367e-03
5.9999999999999998e-01 +4.6465518028792712e+00 +0.0000000000000000e+00 +5.9999997559734841e-01 +2.2389069351255068e-02 -4.1193874233427197e-01 +2.9006783463306749e-03
6.9999999999999996e-01 +4.6464982872591811e+00 +0.0000000000000000e+00 +6.9999996124949559e-01 +2.2389076118043322e-02 -4.1193869742178846e-01 +2.9006810093554270e-03
7.9999999999999993e-01 +4.6464365384706099e+00 +0.0000000000000000e+00 +7.9999994215668557e-01 +2.2389073349082564e-02 -4.1193864949700187e-01 +2.9006857805746063e-03
8.9999999999999991e-01 +4.6463665565149332e+00 +0.0000000000000000e+00 +8.9999991764106824e-01 +2.2389061832842259e-02 -4.1193859884938311e-01 +2.9006924130981701e-03
9.9999999999999989e-01 +4.6462883413936371e+00 +0.0000000000000000e+00 +9.9999988702479381e-01 +2.2389042357837920e-02 -4.1193854576844435e-01 +2.9007006600463626e-03
1.0999999999999999e+00 +4.6462018931083122e+00 +0.0000000000000000e+00 +1.0999998496300130e+00 +2.2389015712647644e-02 -4.1193849054374992e-01 +2.9007102745521761e-03
1.2000000000000000e+00 +4.6461072116606479e+00 +0.0000000000000000e+00 +1.1999998047788765e+00 +2.2388982685928704e-02 -4.1193843346492731e-01 +2.9007210097638032e-03
1.3000000000000000e+00 +4.6460042970524258e+00 +0.0000000000000000e+00 +1.2999997517935358e+00 +2.2388944066434133e-02 -4.1193837482168011e-01 +2.9007326188470964e-03
1.4000000000000001e+00 +4.6458931492855156e+00 +0.0000000000000000e+00 +1.3999996899961424e+00 +2.2388900643029199e-02 -4.1193831490379779e-01 +2.9007448549880216e-03
1.5000000000000002e+00 +4.6457737683618676e+00 +0.0000000000000000e+00 +1.4999996187088487e+00 +2.2388853204708029e-02 -4.1193825400116840e-01 +2.9007574713951182e-03
1.6000000000000003e+00 +4.6456461542835079e+00 +0.0000000000000000e+00 +1.5999995372538067e+00 +2.2388802540610105e-02 -4.1193819240378970e-01 +2.9007702213019637e-03
1.7000000000000004e+00 +4.6455103070525325e+00 +0.0000000000000000e+00 +1.6999994449531695e+00 +2.2388749440036770e-02 -4.1193813040178034e-01 +2.9007828579696313e-03
1.8000000000000005e+00 +4.6453662266711007e+00 +0.0000000000000000e+00 +1.7999993411290902e+00 +2.2388694692467733e-02 -4.1193806828539137e-01 +2.9007951346891620e-03
1.9000000000000006e+00 +4.6452139131414301e+00 +0.0000000000000000e+00 +1.8999992251037225e+00 +2.2388639087577576e-02 -4.1193800634501826e-01 +2.9008068047840221e-03
2.0000000000000004e+00 +4.6450533664657909e+00 +0.0000000000000000e+00 +1.9999990961992204e+00 +2.2388583415252180e-02 -4.1193794487121133e-01 +2.9008176216125886e-03
2.1000000000000005e+00 +4.6448845866464987e+00 +0.0000000000000000e+00 +2.0999989537377384e+00 +2.2388528436751140e-02 -4.1193788411307825e-01 +2.9008273745044244e-03
2.2000000000000006e+00 +4.6447075736859125e+00 +0.0000000000000000e+00 +2.1999987970414310e+00 +2.2388474798074126e-02 -4.1193782415341657e-01 +2.9008359965559203e-03
2.3000000000000007e+00 +4.6445223275864302e+00 +0.0000000000000000e+00 +2.2999986254324534e+00 +2.2388423116380046e-02 -4.1193776503346979e-01 +2.9008434568061660e-03
2.4000000000000008e+00 +4.6443288483504892e+00 +0.0000000000000000e+00 +2.3999984382329607e+00 +2.2388374008809980e-02 -4.1193770679452540e-01 +2.9008497242965889e-03
2.5000000000000009e+00 +4.6441271359805647e+00 +0.0000000000000000e+00 +2.4999982347651093e+00 +2.2388328092474225e-02 -4.1193764947791006e-01 +2.9008547680691838e-03
2.6000000000000010e+00 +4.6439171904791703e+00 +0.0000000000000000e+00 +2.5999980143510548e+00 +2.2388285984439288e-02 -4.1193759312498529e-01 +2.9008585571647424e-03
2.7000000000000011e+00 +4.6436990118488541e+00 +0.0000000000000000e+00 +2.6999977763129541e+00 +2.2388248301714916e-02 -4.1193753777714415e-01 +2.9008610606210839e-03
2.8000000000000012e+00 +4.6434726000922018e+00 +0.0000000000000000e+00 +2.7999975199729641e+00 +2.2388215661241089e-02 -4.1193748347580500e-01 +2.9008622474712906e-03
2.9000000000000012e+00 +4.6432379552118332e+00 +0.0000000000000000e+00 +2.8999972446532420e+00 +2.2388188679875073e-02 -4.1193743026240986e-01 +2.9008620867419384e-03
3.0000000000000013e+00 +4.6429950772104025e+00 +0.0000000000000000e+00 +2.9999969496759453e+00 +2.2388167974378440e-02 -4.1193737817841747e-01 +2.9008605474513216e-03
3.1000000000000014e+00 +4.6427439660905971e+00 +0.0000000000000000e+00 +3.0999966343632321e+00 +2.2388154161404116e-02 -4.1193732726530119e-01 +2.9008575986076996e-03
3.2000000000000015e+00 +4.6424846218551359e+00 +0.0000000000000000e+00 +3.1999962980372607e+00 +2.2388147857483463e-02 -4.1193727756454374e-01 +2.9008532092075182e-03
3.3000000000000016e+00 +4.6422170445067712e+00 +0.0000000000000000e+00 +3.2999959400201893e+00 +2.2388149679013300e-02 -4.1193722911763314e-01 +2.9008473482336487e-03
3.4000000000000017e+00 +4.6419412340482840e+00 +0.0000000000000000e+00 +3.3999955596341773e+00 +2.2388160242243008e-02 -4.1193718196605850e-01 +2.9008399846536170e-03
3.5000000000000018e+00 +4.6416571904824862e+00 +0.0000000000000000e+00 +3.4999951562013836e+00 +2.2388180163261599e-02 -4.1193713615130623e-01 +2.9008310874178451e-03
3.6000000000000019e+00 +4.6413649138122191e+00 +0.0000000000000000e+00 +3.5999947290439676e+00 +2.2388210057984852e-02 -4.1193709171485532e-01 +2.9008206254578749e-03
3.7000000000000020e+00 +4.6410644040403524e+00 +0.0000000000000000e+00 +3.6999942774840897e+00 +2.2388250542142388e-02 -4.1193704869817377e-01 +2.9008085676846137e-03
3.8000000000000020e+00 +4.6407556611697824e+00 +0.0000000000000000e+00 +3.7999938008439096e+00 +2.2388302231264812e-02 -4.1193700714271358e-01 +2.9007948829865562e-03
3.9000000000000021e+00 +4.6404386852034323e+00 +0.0000000000000000e+00 +3.8999932984455876e+00 +2.2388365740670865e-02 -4.1193696708990779e-01 +2.9007795402280320e-03
4.0000000000000018e+00 +4.6401134761442506e+00 +0.0000000000000000e+00 +3.9999927696112847e+00 +2.2388441685454584e-02 -4.1193692858116554e-01 +2.9007625082474310e-03
4.1000000000000014e+00 +4.6397800339952120e+00 +0.0000000000000000e+00 +4.0999922136631621e+00 +2.2388530352922008e-02 -4.1193689159014879e-01 +2.9007437860079552e-03
4.2000000000000011e+00 +4.6394383587593166e+00 +0.0000000000000000e+00 +4.1999916299233808e+00 +2.2388630719700663e-02 -4.1193685581950323e-01 +2.9007234930846998e-03
4.3000000000000007e+00 +4.6390884504395959e+00 +0.0000000000000000e+00 +4.2999910177141025e+00 +2.2388741434626082e-02 -4.1193682090395772e-01 +2.9007017792016931e-03
4.4000000000000004e+00 +4.6387303090391203e+00 +0.0000000000000000e+00 +4.3999903763574890e+00 +2.2388861146445983e-02 -4.1193678647804810e-01 +2.9006787940666716e-03
4.5000000000000000e+00 +4.6383639345610055e+00 +0.0000000000000000e+00 +4.4999897051757021e+00 +2.2388988503817812e-02 -4.1193675217610520e-01 +2.9006546873702158e-03
4.5999999999999996e+00 +4.6379893270084214e+00 +0.0000000000000000e+00 +4.5999890034909043e+00 +2.2389122155306394e-02 -4.1193671763224216e-01 +2.9006296087848763e-03
4.6999999999999993e+00 +4.6376064863845983e+00 +0.0000000000000000e+00 +4.6999882706252594e+00 +2.2389260749381544e-02 -4.1193668248034138e-01 +2.9006037079642925e-03
4.7999999999999989e+00 +4.6372154126928349e+00 +0.0000000000000000e+00 +4.7999875059009298e+00 +2.2389402934415725e-02 -4.1193664635404220e-01 +2.9005771345423010e-03
4.8999999999999986e+00 +4.6368161059365045e+00 +0.0000000000000000e+00 +4.8999867086400801e+00 +2.2389547358681702e-02 -4.1193660888672817e-01 +2.9005500381320561e-03
4.9999999999999982e+00 +4.6364085661190630e+00 +0.0000000000000000e+00 +4.9999858781648738e+00 +2.2389692670350191e-02 -4.1193656971151360e-01 +2.9005225683251231e-03
5.0999999999999979e+00 +4.6359927932440561e+00 +0.0000000000000000e+00 +5.0999850137974772e+00 +2.2389837517487628e-02 -4.1193652846123185e-01 +2.9004948746905791e-03
5.1999999999999975e+00 +4.6355687873151279e+00 +0.0000000000000000e+00 +5.1999841148600545e+00 +2.2389980548053860e-02 -4.1193648476842254e-01 +2.9004671067741038e-03
5.2999999999999972e+00 +4.6351365483360256e+00 +0.0000000000000000e+00 +5.2999831806747721e+00 +2.2390120409899794e-02 -4.1193643826531756e-01 +2.9004394140970573e-03
5.3999999999999968e+00 +4.6346960763106102e+00 +0.0000000000000000e+00 +5.3999822105637971e+00 +2.2390255750765288e-02 -4.1193638858383025e-01 +2.9004119461555657e-03
5.4999999999999964e+00 +4.6342473712428598e+00 +0.0000000000000000e+00 +5.4999812038492975e+00 +2.2390385218276861e-02 -4.1193633535554075e-01 +2.9003848524195783e-03
5.5999999999999961e+00 +4.6337904331368813e+00 +0.0000000000000000e+00 +5.5999801598534411e+00 +2.2390507459945447e-02 -4.1193627821168483e-01 +2.9003582823319443e-03
5.6999999999999957e+00 +4.6333252619969141e+00 +0.0000000000000000e+00 +5.6999790778983970e+00 +2.2390621123164305e-02 -4.1193621678313991e-01 +2.9003323853074529e-03
5.7999999999999954e+00 +4.6328518578273394e+00 +0.0000000000000000e+00 +5.7999779573063357e+00 +2.2390724855206771e-02 -4.1193615070041334e-01 +2.9003073107318872e-03
5.8999999999999950e+00 +4.6323702206326880e+00 +0.0000000000000000e+00 +5.8999767973994288e+00 +2.2390817303224196e-02 -4.1193607959362905e-01 +2.9002832079610642e-03
5.9999999999999947e+00 +4.6318803504176467e+00 +0.0000000000000000e+00 +5.9999755974998488e+00 +2.2390897114243764e-02 -4.1193600309251427e-01 +2.9002602263198591e-03
6.0999999999999943e+00 +4.6313822471870649e+00 +0.0000000000000000e+00 +6.0999743569297689e+00 +2.2390963281438685e-02 -4.1193592096742343e-01 +2.9002384719959092e-03
6.1999999999999940e+00 +4.6308759109459601e+00 +0.0000000000000000e+00 +6.1999730750113633e+00 +2.2391016184115990e-02 -4.1193583355309210e-01 +2.9002178786102940e-03
6.2999999999999936e+00 +4.6303613416995102e+00 +0.0000000000000000e+00 +6.2999717510668090e+00 +2.2391056548677318e-02 -4.1193574132575317e-01 +2.9001983366207865e-03
6.3999999999999932e+00 +4.6298385394530461e+00 +0.0000000000000000e+00 +6.3999703844182827e+00 +2.2391085101894737e-02 -4.1193564476197320e-01 +2.9001797364946185e-03
6.4999999999999929e+00 +4.6293075042120408e+00 +0.0000000000000000e+00 +6.4999689743879623e+00 +2.2391102570927461e-02 -4.1193554433866819e-01 +2.9001619687093888e-03
6.5999999999999925e+00 +4.6287682359820996e+00 +0.0000000000000000e+00 +6.5999675202980281e+00 +2.2391109683338413e-02 -4.1193544053312231e-01 +2.9001449237539821e-03
6.6999999999999922e+00 +4.6282207347689521e+00 +0.0000000000000000e+00 +6.6999660214706607e+00 +2.2391107167110843e-02 -4.1193533382300418e-01 +2.9001284921294935e-03
6.7999999999999918e+00 +4.6276650005784417e+00 +0.0000000000000000e+00 +6.7999644772280412e+00 +2.2391095750664763e-02 -4.1193522468638433e-01 +2.9001125643501810e-03
6.8999999999999915e+00 +4.6271010334165155e+00 +0.0000000000000000e+00 +6.8999628868923537e+00 +2.2391076162873506e-02 -4.1193511360175245e-01 +2.9000970309444062e-03
6.9999999999999911e+00 +4.6265288332892158e+00 +0.0000000000000000e+00 +6.9999612497857813e+00 +2.2391049133080064e-02 -4.1193500104803454e-01 +2.9000817824556134e-03
7.0999999999999908e+00 +4.6259484002026694e+00 +0.0000000000000000e+00 +7.0999595652305096e+00 +2.2391015391113486e-02 -4.1193488750461005e-01 +2.9000667094433059e-03
7.1999999999999904e+00 +4.6253597341630801e+00 +0.0000000000000000e+00 +7.1999578325487246e+00 +2.2390975667305212e-02 -4.1193477345132962e-01 +2.9000517024840378e-03
7.2999999999999901e+00 +4.6247628351767158e+00 +0.0000000000000000e+00 +7.2999560510626136e+00 +2.2390930692505313e-02 -4.1193465936853124e-01 +2.9000366521724154e-03
7.3999999999999897e+00 +4.6241577032499022e+00 +0.0000000000000000e+00 +7.3999542200943642e+00 +2.2390881198098653e-02 -4.1193454573705812e-01 +2.9000214491221323e-03
7.4999999999999893e+00 +4.6235443383890118e+00 +0.0000000000000000e+00 +7.4999523389661649e+00 +2.2390827916021122e-02 -4.1193443303827620e-01 +2.9000059839669901e-03
7.5999999999999890e+00 +4.6229227406004529e+00 +0.0000000000000000e+00 +7.5999504070002057e+00 +2.2390771578775639e-02 -4.1193432175409000e-01 +2.8999901473619567e-03
7.6999999999999886e+00 +4.6222929098906631e+00 +0.0000000000000000e+00 +7.6999484235186761e+00 +2.2390712919448243e-02 -4.1193421236696132e-01 +2.8999738299842303e-03
7.7999999999999883e+00 +4.6216548462660967e+00 +0.0000000000000000e+00 +7.7999463878437680e+00 +2.2390652671724031e-02 -4.1193410535992547e-01 +2.8999569225343132e-03
7.8999999999999879e+00 +4.6210085497332161e+00 +0.0000000000000000e+00 +7.8999442992976725e+00 +2.2390591569903043e-02 -4.1193400121660817e-01 +2.8999393157371177e-03
7.9999999999999876e+00 +4.6203540202984827e+00 +0.0000000000000000e+00 +7.9999421572025815e+00 +2.2390530348916155e-02 -4.1193390042124350e-01 +2.8999209003430721e-03
8.0999999999999872e+00 +4.6196912579683476e+00 +0.0000000000000000e+00 +8.0999399608806879e+00 +2.2390469721233881e-02 -4.1193380332156659e-01 +2.8999015868482986e-03
8.1999999999999869e+00 +4.6190202627492445e+00 +0.0000000000000000e+00 +8.1999377096541846e+00 +2.2390410307041825e-02 -4.1193370971618021e-01 +2.8998813647705176e-03
8.2999999999999865e+00 +4.6183410346475924e+00 +0.0000000000000000e+00 +8.2999354028452643e+00 +2.2390352703014260e-02 -4.1193361926583333e-01 +2.8998602433897196e-03
8.3999999999999861e+00 +4.6176535736698039e+00 +0.0000000000000000e+00 +8.3999330397761209e+00 +2.2390297505396874e-02 -4.1193353163092822e-01 +2.8998382319548447e-03
8.4999999999999858e+00 +4.6169578798222908e+00 +0.0000000000000000e+00 +8.4999306197689481e+00 +2.2390245309990751e-02 -4.1193344647150876e-01 +2.8998153396827993e-03
8.5999999999999854e+00 +4.6162539531114710e+00 +0.0000000000000000e+00 +8.5999281421459415e+00 +2.2390196712136330e-02 -4.1193336344724774e-01 +2.8997915757574739e-03
8.6999999999999851e+00 +4.6155417935437759e+00 +0.0000000000000000e+00 +8.6999256062292947e+00 +2.2390152306697456e-02 -4.1193328221743425e-01 +2.8997669493287343e-03
8.7999999999999847e+00 +4.6148214011256572e+00 +0.0000000000000000e+00 +8.7999230113412032e+00 +2.2390112688045388e-02 -4.1193320244096127e-01 +2.8997414695114358e-03
8.8999999999999844e+00 +4.6140927758635923e+00 +0.0000000000000000e+00 +8.8999203568038645e+00 +2.2390078450042941e-02 -4.1193312377631364e-01 +2.8997151453843870e-03
8.9999999999999840e+00 +4.6133559177640935e+00 +0.0000000000000000e+00 +8.9999176419394757e+00 +2.2390050186028534e-02 -4.1193304588155560e-01 +2.8996879859893398e-03
9.0999999999999837e+00 +4.6126108268337127e+00 +0.0000000000000000e+00 +9.0999148660702325e+00 +2.2390028488800395e-02 -4.1193296841431865e-01 +2.8996600003299454e-03
9.1999999999999833e+00 +4.6118575030790492e+00 +0.0000000000000000e+00 +9.1999120285183338e+00 +2.2390013950600748e-02 -4.1193289103178887e-01 +2.8996311973707102e-03
9.2999999999999829e+00 +4.6110959465067562e+00 +0.0000000000000000e+00 +9.2999091286059787e+00 +2.2390007163100033e-02 -4.1193281339069543e-01 +2.8996015860359410e-03
9.3999999999999826e+00 +4.6103261571235477e+00 +0.0000000000000000e+00 +9.3999061656553682e+00 +2.2390008717381164e-02 -4.1193273514729767e-01 +2.8995711752086749e-03
9.4999999999999822e+00 +4.6095481349362064e+00 +0.0000000000000000e+00 +9.4999031389887012e+00 +2.2390019203923868e-02 -4.1193265595737372e-01 +2.8995399737296048e-03
9.5999999999999819e+00 +4.6087618799515893e+00 +0.0000000000000000e+00 +9.5999000479281804e+00 +2.2390039212589023e-02 -4.1193257547620787e-01 +2.8995079903959861e-03
9.6999999999999815e+00 +4.6079673921766346e+00 +0.0000000000000000e+00 +9.6998968917960084e+00 +2.2390069332603027e-02 -4.1193249335857846e-01 +2.8994752339605366e-03
9.7999999999999812e+00 +4.6071646716183690e+00 +0.0000000000000000e+00 +9.7998936699143897e+00 +2.2390110152542247e-02 -4.1193240925874614e-01 +2.8994417131303261e-03
9.8999999999999808e+00 +4.6063537182839154e+00 +0.0000000000000000e+00 +9.8998903816055286e+00 +2.2390162260317509e-02 -4.1193232283044234e-01 +2.8994074365656449e-03
9.9999999999999805e+00 +4.6055345321804992e+00 +0.0000000000000000e+00 +9.9998870261916313e+00 +2.2390226243158597e-02 -4.1193223372685639e-01 +2.8993724128788759e-03
1.0099999999999980e+01 +4.6047071133154533e+00 +0.0000000000000000e+00 +1.0099883602994906e+01 +2.2390302377999362e-02 -4.1193214167765135e-01 +2.8993366664102544e-03
1.0199999999999980e+01 +4.6038714616962269e+00 +0.0000000000000000e+00 +1.0199880111337562e+01 +2.2390389698728211e-02 -4.1193204672139411e-01 +2.8993002848284066e-03
1.0299999999999979e+01 +4.6030275773303808e+00 +0.0000000000000000e+00 +1.0299876550541807e+01 +2.2390486927549642e-02 -4.1193194897449681e-01 +2.8992633717928890e-03
1.0399999999999979e+01 +4.6021754602255891e+00 +0.0000000000000000e+00 +1.0399872919929855e+01 +2.2390592786760154e-02 -4.1193184855375409e-01 +2.8992260310871385e-03
1.0499999999999979e+01 +4.6013151103896339e+00 +0.0000000000000000e+00 +1.0499869218823921e+01 +2.2390705998752151e-02 -4.1193174557635170e-01 +2.8991883666216233e-03
1.0599999999999978e+01 +4.6004465278304050e+00 +0.0000000000000000e+00 +1.0599865446546216e+01 +2.2390825286018025e-02 -4.1193164015987621e-01 +2.8991504824369785e-03
1.0699999999999978e+01 +4.5995697125558967e+00 +0.0000000000000000e+00 +1.0699861602418959e+01 +2.2390949371154184e-02 -4.1193153242232489e-01 +2.8991124827071370e-03
1.0799999999999978e+01 +4.5986846645742059e+00 +0.0000000000000000e+00 +1.0799857685764366e+01 +2.2391076976865106e-02 -4.1193142248211434e-01 +2.8990744717424630e-03
1.0899999999999977e+01 +4.5977913838935276e+00 +0.0000000000000000e+00 +1.0899853695904655e+01 +2.2391206825967434e-02 -4.1193131045809023e-01 +2.8990365539928666e-03
1.0999999999999977e+01 +4.5968898705221557e+00 +0.0000000000000000e+00 +1.0999849632162048e+01 +2.2391337641394046e-02 -4.1193119646953613e-01 +2.8989988340509289e-03
1.1099999999999977e+01 +4.5959801244684790e+00 +0.0000000000000000e+00 +1.1099845493858767e+01 +2.2391468146198187e-02 -4.1193108063618367e-01 +2.8989614166550007e-03
1.1199999999999976e+01 +4.5950621457409788e+00 +0.0000000000000000e+00 +1.1199841280317035e+01 +2.2391597063557589e-02 -4.1193096307821964e-01 +2.8989244066923172e-03
1.1299999999999976e+01 +4.5941359343482269e+00 +0.0000000000000000e+00 +1.1299836990859074e+01 +2.2391723116778624e-02 -4.1193084391629708e-01 +2.8988879092020905e-03
1.1399999999999975e+01 +4.5932014902988820e+00 +0.0000000000000000e+00 +1.1399832624807113e+01 +2.2391845029300476e-02 -4.1193072327154301e-01 +2.8988520293785993e-03
1.1499999999999975e+01 +4.5922588136016893e+00 +0.0000000000000000e+00 +1.1499828181483377e+01 +2.2391961524699334e-02 -4.1193060126556724e-01 +2.8988168725742800e-03
1.1599999999999975e+01 +4.5913079042654763e+00 +0.0000000000000000e+00 +1.1599823660210095e+01 +2.2392071326692596e-02 -4.1193047802047189e-01 +2.8987825443028002e-03
1.1699999999999974e+01 +4.5903487622991523e+00 +0.0000000000000000e+00 +1.1699819060309499e+01 +2.2392173159143079e-02 -4.1193035365885938e-01 +2.8987491502421342e-03
1.1799999999999974e+01 +4.5893813877117031e+00 +0.0000000000000000e+00 +1.1799814381103820e+01 +2.2392265746063268e-02 -4.1193022830384102e-01 +2.8987167962376235e-03
