# trajectory
# s[mm] rx[mm] ry[mm] rz[mm] px[rad] py[rad] pz[rad]
0.0000000000000000e+00 +4.6467000000000001e+00 +0.0000000000000000e+00 +0.0000000000000000e+00 +0.0000000000000000e+00 +0.0000000000000000e+00 +1.0000000000000000e+00
1.0000000000000001e-01 +4.6466956897391949e+00 +0.0000000000000000e+00 +9.9999999876144344e-02 -8.6205215695118564e-05 +0.0000000000000000e+00 +9.9999999628433034e-01
2.0000000000000001e-01 +4.6466827589569641e+00 +0.0000000000000000e+00 +1.9999999900915477e-01 -1.7241042830147690e-04 +0.0000000000000000e+00 +9.9999998513732191e-01
3.0000000000000004e-01 +4.6466612076536782e+00 +0.0000000000000000e+00 +2.9999999665589749e-01 -2.5861563660030244e-04 +0.0000000000000000e+00 +9.9999996655897561e-01
4.0000000000000002e-01 +4.6466310358298282e+00 +0.0000000000000000e+00 +3.9999999207323872e-01 -3.4482083937993586e-04 +0.0000000000000000e+00 +9.9999994054929253e-01
5.0000000000000000e-01 +4.6465922434860261e+00 +0.0000000000000000e+00 +4.9999998451804484e-01 -4.3102603543581492e-04 +0.0000000000000000e+00 +9.9999990710827402e-01
5.9999999999999998e-01 +4.6465448306230046e+00 +0.0000000000000000e+00 +5.9999997324718235e-01 -5.1723122357046037e-04 +0.0000000000000000e+00 +9.9999986623592163e-01
6.9999999999999996e-01 +4.6464887972416156e+00 +0.0000000000000000e+00 +6.9999995751751809e-01 -6.0343640259346415e-04 +0.0000000000000000e+00 +9.9999981793223736e-01
7.9999999999999993e-01 +4.6464241433428288e+00 +0.0000000000000000e+00 +7.9999993658591884e-01 -6.8964157132148031e-04 +0.0000000000000000e+00 +9.9999976219722320e-01
8.9999999999999991e-01 +4.6463508689277333e+00 +0.0000000000000000e+00 +8.9999990970925181e-01 -7.7584672857821703e-04 +0.0000000000000000e+00 +9.9999969903088148e-01
9.9999999999999989e-01 +4.6462689739975342e+00 +0.0000000000000000e+00 +9.9999987614438435e-01 -8.6205187319443231e-04 +0.0000000000000000e+00 +9.9999962843321488e-01
1.0999999999999999e+00 +4.6461784585535542e+00 +0.0000000000000000e+00 +1.0999998351481841e+00 -9.4825700400793091e-04 +0.0000000000000000e+00 +9.9999955040422606e-01
1.2000000000000000e+00 +4.6460793225972310e+00 +0.0000000000000000e+00 +1.1999997859775189e+00 -1.0344621198635638e-03 +0.0000000000000000e+00 +9.9999946494391811e-01
1.3000000000000000e+00 +4.6459715661301182e+00 +0.0000000000000000e+00 +1.2999997278892572e+00 -1.1206672196132303e-03 +0.0000000000000000e+00 +9.9999937205229428e-01
1.4000000000000001e+00 +4.6458551891538828e+00 +0.0000000000000000e+00 +1.3999996601402673e+00 -1.2068723021158810e-03 +0.0000000000000000e+00 +9.9999927172935799e-01
1.5000000000000002e+00 +4.6457301916703075e+00 +0.0000000000000000e+00 +1.4999995819874183e+00 -1.2930773662375257e-03 +0.0000000000000000e+00 +9.9999916397511301e-01
1.6000000000000003e+00 +4.6455965736812859e+00 +0.0000000000000000e+00 +1.5999994926875796e+00 -1.3792824108512405e-03 +0.0000000000000000e+00 +9.9999904878956314e-01
1.7000000000000004e+00 +4.6454543351888251e+00 +0.0000000000000000e+00 +1.6999993914976208e+00 -1.4654874348371792e-03 +0.0000000000000000e+00 +9.9999892617271258e-01
1.8000000000000005e+00 +4.6453034761950436e+00 +0.0000000000000000e+00 +1.7999992776744123e+00 -1.5516924370825862e-03 +0.0000000000000000e+00 +9.9999879612456566e-01
1.9000000000000006e+00 +4.6451439967021706e+00 +0.0000000000000000e+00 +1.8999991504748244e+00 -1.6378974164818118e-03 +0.0000000000000000e+00 +9.9999865864512694e-01
2.0000000000000004e+00 +4.6449758967125456e+00 +0.0000000000000000e+00 +1.9999990091557280e+00 -1.7241023719363300e-03 +0.0000000000000000e+00 +9.9999851373440107e-01
2.1000000000000005e+00 +4.6447991762286183e+00 +0.0000000000000000e+00 +2.0999988529739952e+00 -1.8103073023557708e-03 +0.0000000000000000e+00 +9.9999836139239306e-01
2.2000000000000006e+00 +4.6446138352529447e+00 +0.0000000000000000e+00 +2.1999986811864978e+00 -1.8965122066690869e-03 +0.0000000000000000e+00 +9.9999820161910791e-01
2.3000000000000007e+00 +4.6444198737881885e+00 +0.0000000000000000e+00 +2.2999984930501078e+00 -1.9827170838357137e-03 +0.0000000000000000e+00 +9.9999803441455104e-01
2.4000000000000008e+00 +4.6442172918371156e+00 +0.0000000000000000e+00 +2.3999982878216990e+00 -2.0689219328465930e-03 +0.0000000000000000e+00 +9.9999785977872768e-01
2.5000000000000009e+00 +4.6440060894025903e+00 +0.0000000000000000e+00 +2.4999980647581448e+00 -2.1551267527241853e-03 +0.0000000000000000e+00 +9.9999767771164338e-01
2.6000000000000010e+00 +4.6437862664875738e+00 +0.0000000000000000e+00 +2.5999978231163192e+00 -2.2413315425224814e-03 +0.0000000000000000e+00 +9.9999748821330381e-01
2.7000000000000011e+00 +4.6435578230951196e+00 +0.0000000000000000e+00 +2.6999975621530972e+00 -2.3275363013270148e-03 +0.0000000000000000e+00 +9.9999729128371451e-01
2.8000000000000012e+00 +4.6433207592283710e+00 +0.0000000000000000e+00 +2.7999972811253540e+00 -2.4137410282548751e-03 +0.0000000000000000e+00 +9.9999708692288136e-01
2.9000000000000012e+00 +4.6430750748905592e+00 +0.0000000000000000e+00 +2.8999969792899654e+00 -2.4999457224547219e-03 +0.0000000000000000e+00 +9.9999687513081015e-01
3.0000000000000013e+00 +4.6428207700849979e+00 +0.0000000000000000e+00 +2.9999966559038080e+00 -2.5861503831067986e-03 +0.0000000000000000e+00 +9.9999665590750664e-01
3.1000000000000014e+00 +4.6425578448150819e+00 +0.0000000000000000e+00 +3.0999963102237591e+00 -2.6723550094229476e-03 +0.0000000000000000e+00 +9.9999642925297683e-01
3.2000000000000015e+00 +4.6422862990842830e+00 +0.0000000000000000e+00 +3.1999959415066961e+00 -2.7585596006466265e-03 +0.0000000000000000e+00 +9.9999619516722660e-01
3.3000000000000016e+00 +4.6420061328961468e+00 +0.0000000000000000e+00 +3.2999955490094974e+00 -2.8447641560529224e-03 +0.0000000000000000e+00 +9.9999595365026184e-01
3.4000000000000017e+00 +4.6417173462542900e+00 +0.0000000000000000e+00 +3.3999951319890416e+00 -2.9309686749485705e-03 +0.0000000000000000e+00 +9.9999570470208854e-01
3.5000000000000018e+00 +4.6414199391623967e+00 +0.0000000000000000e+00 +3.4999946897022083e+00 -3.0171731566719698e-03 +0.0000000000000000e+00 +9.9999544832271259e-01
3.6000000000000019e+00 +4.6411139116242159e+00 +0.0000000000000000e+00 +3.5999942214058773e+00 -3.1033776005932015e-03 +0.0000000000000000e+00 +9.9999518451213976e-01
3.7000000000000020e+00 +4.6407992636435580e+00 +0.0000000000000000e+00 +3.6999937263569298e+00 -3.1895820061140466e-03 +0.0000000000000000e+00 +9.9999491327037593e-01
3.8000000000000020e+00 +4.6404759952242918e+00 +0.0000000000000000e+00 +3.7999932038122464e+00 -3.2757863726680055e-03 +0.0000000000000000e+00 +9.9999463459742677e-01
3.9000000000000021e+00 +4.6401441063703412e+00 +0.0000000000000000e+00 +3.8999926530287090e+00 -3.3619906997203173e-03 +0.0000000000000000e+00 +9.9999434849329794e-01
4.0000000000000018e+00 +4.6398035970856810e+00 +0.0000000000000000e+00 +3.9999920732632002e+00 -3.4481949867679793e-03 +0.0000000000000000e+00 +9.9999405495799509e-01
4.1000000000000014e+00 +4.6394544673743363e+00 +0.0000000000000000e+00 +4.0999914637726027e+00 -3.5343992333402548e-03 +0.0000000000000000e+00 +9.9999375399152357e-01
4.2000000000000011e+00 +4.6390967172403768e+00 +0.0000000000000000e+00 +4.1999908238138000e+00 -3.6206034390040636e-03 +0.0000000000000000e+00 +9.9999344559388881e-01
4.3000000000000007e+00 +4.6387303466879128e+00 +0.0000000000000000e+00 +4.2999901526436757e+00 -3.7068076033693704e-03 +0.0000000000000000e+00 +9.9999312976509591e-01
4.4000000000000004e+00 +4.6383553557210915e+00 +0.0000000000000000e+00 +4.3999894495191141e+00 -3.7930117260896916e-03 +0.0000000000000000e+00 +9.9999280650514988e-01
4.5000000000000000e+00 +4.6379717443440933e+00 +0.0000000000000000e+00 +4.4999887136970003e+00 -3.8792158068621137e-03 +0.0000000000000000e+00 +9.9999247581405537e-01
4.5999999999999996e+00 +4.6375795125611265e+00 +0.0000000000000000e+00 +4.5999879444342202e+00 -3.9654198454273119e-03 +0.0000000000000000e+00 +9.9999213769181694e-01
4.6999999999999993e+00 +4.6371786603764225e+00 +0.0000000000000000e+00 +4.6999871409876590e+00 -4.0516238415695691e-03 +0.0000000000000000e+00 +9.9999179213843881e-01
4.7999999999999989e+00 +4.6367691877942327e+00 +0.0000000000000000e+00 +4.7999863026142036e+00 -4.1378277951167972e-03 +0.0000000000000000e+00 +9.9999143915392508e-01
4.8999999999999986e+00 +4.6363510948188233e+00 +0.0000000000000000e+00 +4.8999854285707398e+00 -4.2240317059405539e-03 +0.0000000000000000e+00 +9.9999107873827930e-01
4.9999999999999982e+00 +4.6359243814544717e+00 +0.0000000000000000e+00 +4.9999845181141547e+00 -4.3102355739560666e-03 +0.0000000000000000e+00 +9.9999071089150493e-01
5.0999999999999979e+00 +4.6354890477054607e+00 +0.0000000000000000e+00 +5.0999835705013359e+00 -4.3964393991222485e-03 +0.0000000000000000e+00 +9.9999033561360495e-01
5.1999999999999975e+00 +4.6350450935760756e+00 +0.0000000000000000e+00 +5.1999825849891712e+00 -4.4826431814417233e-03 +0.0000000000000000e+00 +9.9998995290458204e-01
5.2999999999999972e+00 +4.6345925190705994e+00 +0.0000000000000000e+00 +5.2999815608345484e+00 -4.5688469209608446e-03 +0.0000000000000000e+00 +9.9998956276443862e-01
5.3999999999999968e+00 +4.6341313241933078e+00 +0.0000000000000000e+00 +5.3999804972943553e+00 -4.6550506177697156e-03 +0.0000000000000000e+00 +9.9998916519317660e-01
5.4999999999999964e+00 +4.6336615089484647e+00 +0.0000000000000000e+00 +5.4999793936254804e+00 -4.7412542720022127e-03 +0.0000000000000000e+00 +9.9998876019079752e-01
5.5999999999999961e+00 +4.6331830733403203e+00 +0.0000000000000000e+00 +5.5999782490848116e+00 -4.8274578838360073e-03 +0.0000000000000000e+00 +9.9998834775730261e-01
5.6999999999999957e+00 +4.6326960173731031e+00 +0.0000000000000000e+00 +5.6999770629292374e+00 -4.9136614534925870e-03 +0.0000000000000000e+00 +9.9998792789269242e-01
5.7999999999999954e+00 +4.6322003410510186e+00 +0.0000000000000000e+00 +5.7999758344156467e+00 -4.9998649812372795e-03 +0.0000000000000000e+00 +9.9998750059696728e-01
5.8999999999999950e+00 +4.6316960443782422e+00 +0.0000000000000000e+00 +5.8999745628009270e+00 -5.0860684673792724e-03 +0.0000000000000000e+00 +9.9998706587012687e-01
5.9999999999999947e+00 +4.6311831273589172e+00 +0.0000000000000000e+00 +5.9999732473419680e+00 -5.1722719122716393e-03 +0.0000000000000000e+00 +9.9998662371217040e-01
6.0999999999999943e+00 +4.6306615899971497e+00 +0.0000000000000000e+00 +6.0999718872956574e+00 -5.2584753163028679e-03 +0.0000000000000000e+00 +9.9998617412309665e-01
6.1999999999999940e+00 +4.6301314322970075e+00 +0.0000000000000000e+00 +6.1999704819188839e+00 -5.3446786798033823e-03 +0.0000000000000000e+00 +9.9998571710290440e-01
6.2999999999999936e+00 +4.6295926542625336e+00 +0.0000000000000000e+00 +6.2999690304685352e+00 -5.4308820029519821e-03 +0.0000000000000000e+00 +9.9998525265159299e-01
6.3999999999999932e+00 +4.6290452558977613e+00 +0.0000000000000000e+00 +6.3999675322014991e+00 -5.5170852857673001e-03 +0.0000000000000000e+00 +9.9998478076916242e-01
6.4999999999999929e+00 +4.6284892372067290e+00 +0.0000000000000000e+00 +6.4999659863746642e+00 -5.6032885281077733e-03 +0.0000000000000000e+00 +9.9998430145561334e-01
6.5999999999999925e+00 +4.6279245981934984e+00 +0.0000000000000000e+00 +6.5999643922449183e+00 -5.6894917296716118e-03 +0.0000000000000000e+00 +9.9998381471094733e-01
6.6999999999999922e+00 +4.6273513388621694e+00 +0.0000000000000000e+00 +6.6999627490691500e+00 -5.7756948899967634e-03 +0.0000000000000000e+00 +9.9998332053516670e-01
6.7999999999999918e+00 +4.6267694592168951e+00 +0.0000000000000000e+00 +6.7999610561042481e+00 -5.8618980084608778e-03 +0.0000000000000000e+00 +9.9998281892827467e-01
6.8999999999999915e+00 +4.6261789592618987e+00 +0.0000000000000000e+00 +6.8999593126071010e+00 -5.9481010842812702e-03 +0.0000000000000000e+00 +9.9998230989027570e-01
6.9999999999999911e+00 +4.6255798390014915e+00 +0.0000000000000000e+00 +6.9999575178345994e+00 -6.0343041165148827e-03 +0.0000000000000000e+00 +9.9998179342117510e-01
7.0999999999999908e+00 +4.6249720984400851e+00 +0.0000000000000000e+00 +7.0999556710436327e+00 -6.1205071040582428e-03 +0.0000000000000000e+00 +9.9998126952097932e-01
7.1999999999999904e+00 +4.6243557375822109e+00 +0.0000000000000000e+00 +7.1999537714910922e+00 -6.2067100456474249e-03 +0.0000000000000000e+00 +9.9998073818969613e-01
7.2999999999999901e+00 +4.6237307564325345e+00 +0.0000000000000000e+00 +7.2999518184338692e+00 -6.2929129398580034e-03 +0.0000000000000000e+00 +9.9998019942733452e-01
7.3999999999999897e+00 +4.6230971549958717e+00 +0.0000000000000000e+00 +7.3999498111288569e+00 -6.3791157851050108e-03 +0.0000000000000000e+00 +9.9997965323390481e-01
7.4999999999999893e+00 +4.6224549332772042e+00 +0.0000000000000000e+00 +7.4999477488329482e+00 -6.4653185796428904e-03 +0.0000000000000000e+00 +9.9997909960941889e-01
7.5999999999999890e+00 +4.6218040912816969e+00 +0.0000000000000000e+00 +7.5999456308030391e+00 -6.5515213215654490e-03 +0.0000000000000000e+00 +9.9997853855388985e-01
7.6999999999999886e+00 +4.6211446290147133e+00 +0.0000000000000000e+00 +7.6999434562960252e+00 -6.6377240088058096e-03 +0.0000000000000000e+00 +9.9997797006733269e-01
7.7999999999999883e+00 +4.6204765464818323e+00 +0.0000000000000000e+00 +7.7999412245688049e+00 -6.7239266391363574e-03 +0.0000000000000000e+00 +9.9997739414976372e-01
7.8999999999999879e+00 +4.6197998436888623e+00 +0.0000000000000000e+00 +7.8999389348782776e+00 -6.8101292101686930e-03 +0.0000000000000000e+00 +9.9997681080120115e-01
7.9999999999999876e+00 +4.6191145206418600e+00 +0.0000000000000000e+00 +7.9999365864813452e+00 -6.8963317193535753e-03 +0.0000000000000000e+00 +9.9997622002166486e-01
8.0999999999999872e+00 +4.6184205773471438e+00 +0.0000000000000000e+00 +8.0999341786349124e+00 -6.9825341639907128e-03 +0.0000000000000000e+00 +9.9997562181117650e-01
8.1999999999999869e+00 +4.6177180138113059e+00 +0.0000000000000000e+00 +8.1999317105958838e+00 -7.0687365413371868e-03 +0.0000000000000000e+00 +9.9997501616975892e-01
8.2999999999999865e+00 +4.6170068300412090e+00 +0.0000000000000000e+00 +8.2999291816211684e+00 -7.1549388487160311e-03 +0.0000000000000000e+00 +9.9997440309743513e-01
8.3999999999999861e+00 +4.6162870260439819e+00 +0.0000000000000000e+00 +8.3999265909676755e+00 -7.2411410835260823e-03 +0.0000000000000000e+00 +9.9997378259422831e-01
8.4999999999999858e+00 +4.6155586018270078e+00 +0.0000000000000000e+00 +8.4999239378923193e+00 -7.3273432432419362e-03 +0.0000000000000000e+00 +9.9997315466016201e-01
8.5999999999999854e+00 +4.6148215573979190e+00 +0.0000000000000000e+00 +8.5999212216520142e+00 -7.4135453254139030e-03 +0.0000000000000000e+00 +9.9997251929525977e-01
8.6999999999999851e+00 +4.6140758927645891e+00 +0.0000000000000000e+00 +8.6999184415036783e+00 -7.4997473276679589e-03 +0.0000000000000000e+00 +9.9997187649954522e-01
8.7999999999999847e+00 +4.6133216079351262e+00 +0.0000000000000000e+00 +8.7999155967042313e+00 -7.5859492477057004e-03 +0.0000000000000000e+00 +9.9997122627304225e-01
8.8999999999999844e+00 +4.6125587029178634e+00 +0.0000000000000000e+00 +8.8999126865105946e+00 -7.6721510833042961e-03 +0.0000000000000000e+00 +9.9997056861577460e-01
8.9999999999999840e+00 +4.6117871777213519e+00 +0.0000000000000000e+00 +8.9999097101796952e+00 -7.7583528323164333e-03 +0.0000000000000000e+00 +9.9996990352776616e-01
9.0999999999999837e+00 +4.6110070323543555e+00 +0.0000000000000000e+00 +9.0999066669684581e+00 -7.8445544926702693e-03 +0.0000000000000000e+00 +9.9996923100904067e-01
9.1999999999999833e+00 +4.6102182668258402e+00 +0.0000000000000000e+00 +9.1999035561338136e+00 -7.9307560623693776e-03 +0.0000000000000000e+00 +9.9996855105962201e-01
9.2999999999999829e+00 +4.6094208811449677e+00 +0.0000000000000000e+00 +9.2999003769326940e+00 -8.0169575394926935e-03 +0.0000000000000000e+00 +9.9996786367953383e-01
9.3999999999999826e+00 +4.6086148753210887e+00 +0.0000000000000000e+00 +9.3998971286220332e+00 -8.1031589221944623e-03 +0.0000000000000000e+00 +9.9996716886879966e-01
9.4999999999999822e+00 +4.6078002493637351e+00 +0.0000000000000000e+00 +9.4998938104587669e+00 -8.1893602087041769e-03 +0.0000000000000000e+00 +9.9996646662744293e-01
9.5999999999999819e+00 +4.6069770032826112e+00 +0.0000000000000000e+00 +9.5998904216998344e+00 -8.2755613973265231e-03 +0.0000000000000000e+00 +9.9996575695548695e-01
9.6999999999999815e+00 +4.6061451370875872e+00 +0.0000000000000000e+00 +9.6998869616021786e+00 -8.3617624864413230e-03 +0.0000000000000000e+00 +9.9996503985295471e-01
9.7999999999999812e+00 +4.6053046507886917e+00 +0.0000000000000000e+00 +9.7998834294227404e+00 -8.4479634745034688e-03 +0.0000000000000000e+00 +9.9996431531986896e-01
9.8999999999999808e+00 +4.6044555443961039e+00 +0.0000000000000000e+00 +9.8998798244184680e+00 -8.5341643600428656e-03 +0.0000000000000000e+00 +9.9996358335625235e-01
9.9999999999999805e+00 +4.6035978179201473e+00 +0.0000000000000000e+00 +9.9998761458463079e+00 -8.6203651416643674e-03 +0.0000000000000000e+00 +9.9996284396212709e-01
1.0099999999999980e+01 +4.6027314713712792e+00 +0.0000000000000000e+00 +1.0099872392963210e+01 -8.7065658180493499e-03 +0.0000000000000000e+00 +9.9996209713751494e-01
1.0199999999999980e+01 +4.6018565047600859e+00 +0.0000000000000000e+00 +1.0199868565026128e+01 -8.7927663879737942e-03 +0.0000000000000000e+00 +9.9996134288243732e-01
1.0299999999999979e+01 +4.6009729180972698e+00 +0.0000000000000000e+00 +1.0299864661292016e+01 -8.8789668503264953e-03 +0.0000000000000000e+00 +9.9996058119691478e-01
1.0399999999999979e+01 +4.6000807113936393e+00 +0.0000000000000000e+00 +1.0399860681017831e+01 -8.9651672041108216e-03 +0.0000000000000000e+00 +9.9995981208096718e-01
1.0499999999999979e+01 +4.5991798846600958e+00 +0.0000000000000000e+00 +1.0499856623460531e+01 -9.0513674484448171e-03 +0.0000000000000000e+00 +9.9995903553461329e-01
1.0599999999999978e+01 +4.5982704379076242e+00 +0.0000000000000000e+00 +1.0599852487877074e+01 -9.1375675825613092e-03 +0.0000000000000000e+00 +9.9995825155787121e-01
1.0699999999999978e+01 +4.5973523711472799e+00 +0.0000000000000000e+00 +1.0699848273524426e+01 -9.2237676058080139e-03 +0.0000000000000000e+00 +9.9995746015075804e-01
1.0799999999999978e+01 +4.5964256843901765e+00 +0.0000000000000000e+00 +1.0799843979659547e+01 -9.3099675176476528e-03 +0.0000000000000000e+00 +9.9995666131328964e-01
1.0899999999999977e+01 +4.5954903776474776e+00 +0.0000000000000000e+00 +1.0899839605539405e+01 -9.3961673176580600e-03 +0.0000000000000000e+00 +9.9995585504548112e-01
1.0999999999999977e+01 +4.5945464509303831e+00 +0.0000000000000000e+00 +1.0999835150420965e+01 -9.4823670055323023e-03 +0.0000000000000000e+00 +9.9995504134734636e-01
1.1099999999999977e+01 +4.5935939042501159e+00 +0.0000000000000000e+00 +1.1099830613561197e+01 -9.5685665810787933e-03 +0.0000000000000000e+00 +9.9995422021889790e-01
1.1199999999999976e+01 +4.5926327376179144e+00 +0.0000000000000000e+00 +1.1199825994217068e+01 -9.6547660442214203e-03 +0.0000000000000000e+00 +9.9995339166014741e-01
1.1299999999999976e+01 +4.5916629510450173e+00 +0.0000000000000000e+00 +1.1299821291645550e+01 -9.7409653949996605e-03 +0.0000000000000000e+00 +9.9995255567110497e-01
1.1399999999999975e+01 +4.5906845445426550e+00 +0.0000000000000000e+00 +1.1399816505103614e+01 -9.8271646335687107e-03 +0.0000000000000000e+00 +9.9995171225177948e-01
1.1499999999999975e+01 +4.5896975181220352e+00 +0.0000000000000000e+00 +1.1499811633848230e+01 -9.9133637601996130e-03 +0.0000000000000000e+00 +9.9995086140217848e-01
1.1599999999999975e+01 +4.5887018717943340e+00 +0.0000000000000000e+00 +1.1599806677136373e+01 -9.9995627752793859e-03 +0.0000000000000000e+00 +9.9995000312230808e-01
1.1699999999999974e+01 +4.5876976055706811e+00 +0.0000000000000000e+00 +1.1699801634225016e+01 -1.0085761679311155e-02 +0.0000000000000000e+00 +9.9994913741217295e-01
1.1799999999999974e+01 +4.5866847194621521e+00 +0.0000000000000000e+00 +1.1799796504371132e+01 -1.0171960472914285e-02 +0.0000000000000000e+00 +9.9994826427177630e-01
