# field on trajectory
# s[mm] rx[mm] ry[mm] rz[mm] bx[T] by[T] bz[T]
0.0000000000000000e+00 +4.6467000000000001e+00 +0.0000000000000000e+00 +0.0000000000000000e+00 +2.8321744098159067e-02 -5.1993740615083417e-01 +3.6979758925440448e-03
1.0000000000000001e-01 +4.6466948041628520e+00 +0.0000000000000000e+00 +9.9999999820021834e-02 +2.8321878015767403e-02 -5.1993733243821227e-01 +3.6979527599711039e-03
2.0000000000000001e-01 +4.6466792166524424e+00 +0.0000000000000000e+00 +1.9999999856017489e-01 +2.8321999411997131e-02 -5.1993725993047513e-01 +3.6979321738773454e-03
3.0000000000000004e-01 +4.6466532374703879e+00 +0.0000000000000000e+00 +2.9999999514059084e-01 +2.8322108761181856e-02 -5.1993718864486316e-01 +3.6979139827393978e-03
4.0000000000000002e-01 +4.6466168666183947e+00 +0.0000000000000000e+00 +3.9999998848140172e-01 +2.8322206537663847e-02 -5.1993711859864966e-01 +3.6978980350425060e-03
5.0000000000000000e-01 +4.6465701040982550e+00 +0.0000000000000000e+00 +4.9999997750274017e-01 +2.8322293215783115e-02 -5.1993704980911370e-01 +3.6978841792832851e-03
5.9999999999999998e-01 +4.6465129499118483e+00 +0.0000000000000000e+00 +5.9999996112473919e-01 +2.8322369269866716e-02 -5.1993698229352270e-01 +3.6978722639725041e-03
6.9999999999999996e-01 +4.6464454040611418e+00 +0.0000000000000000e+00 +6.9999993826753237e-01 +2.8322435174217959e-02 -5.1993691606910608e-01 +3.6978621376378522e-03
7.9999999999999993e-01 +4.6463674665481882e+00 +0.0000000000000000e+00 +7.9999990785125363e-01 +2.8322491403105592e-02 -5.1993685115303545e-01 +3.6978536488267147e-03
8.9999999999999991e-01 +4.6462791373751262e+00 +0.0000000000000000e+00 +8.9999986879603755e-01 +2.8322538430753108e-02 -5.1993678756240169e-01 +3.6978466461089336e-03
9.9999999999999989e-01 +4.6461804165441816e+00 +0.0000000000000000e+00 +9.9999982002201893e-01 +2.8322576731327875e-02 -5.1993672531419199e-01 +3.6978409780795913e-03
1.0999999999999999e+00 +4.6460713040576636e+00 +0.0000000000000000e+00 +1.0999997604493332e+00 +2.8322606778930458e-02 -5.1993666442526876e-01 +3.6978364933617693e-03
1.2000000000000000e+00 +4.6459517999179676e+00 +0.0000000000000000e+00 +1.1999996889981164e+00 +2.8322629047583762e-02 -5.1993660491234639e-01 +3.6978330406093230e-03
1.3000000000000000e+00 +4.6458219041275735e+00 +0.0000000000000000e+00 +1.2999996045885045e+00 +2.8322644011222333e-02 -5.1993654679196943e-01 +3.6978304685096526e-03
1.4000000000000001e+00 +4.6456816166890453e+00 +0.0000000000000000e+00 +1.3999995061406345e+00 +2.8322652143681626e-02 -5.1993649008049025e-01 +3.6978286257864789e-03
1.5000000000000002e+00 +4.6455309376050318e+00 +0.0000000000000000e+00 +1.4999993925746438e+00 +2.8322653918687116e-02 -5.1993643479404661e-01 +3.6978273612026037e-03
1.6000000000000003e+00 +4.6453698668782648e+00 +0.0000000000000000e+00 +1.5999992628106701e+00 +2.8322649809843663e-02 -5.1993638094854056e-01 +3.6978265235626975e-03
1.7000000000000004e+00 +4.6451984045115600e+00 +0.0000000000000000e+00 +1.6999991157688517e+00 +2.8322640290624687e-02 -5.1993632855961358e-01 +3.6978259617160662e-03
1.8000000000000005e+00 +4.6450165505078163e+00 +0.0000000000000000e+00 +1.7999989503693272e+00 +2.8322625834361435e-02 -5.1993627764262751e-01 +3.6978255245594285e-03
1.9000000000000006e+00 +4.6448243048700144e+00 +0.0000000000000000e+00 +1.8999987655322357e+00 +2.8322606914232249e-02 -5.1993622821264041e-01 +3.6978250610396968e-03
2.0000000000000004e+00 +4.6446216676012186e+00 +0.0000000000000000e+00 +1.9999985601777170e+00 +2.8322584003251796e-02 -5.1993618028438560e-01 +3.6978244201567537e-03
2.1000000000000005e+00 +4.6444086387045749e+00 +0.0000000000000000e+00 +2.0999983332259111e+00 +2.8322557666159012e-02 -5.1993613381087145e-01 +3.6978234595409810e-03
2.2000000000000006e+00 +4.6441852181833134e+00 +0.0000000000000000e+00 +2.1999980835969586e+00 +2.8322528835197393e-02 -5.1993608849935091e-01 +3.6978220711563754e-03
2.3000000000000007e+00 +4.6439514060407525e+00 +0.0000000000000000e+00 +2.2999978102110004e+00 +2.8322498534550621e-02 -5.1993604399568583e-01 +3.6978201555299944e-03
2.4000000000000008e+00 +4.6437072022803072e+00 +0.0000000000000000e+00 +2.3999975119881785e+00 +2.8322467788471122e-02 -5.1993599994578299e-01 +3.6978176131645065e-03
2.5000000000000009e+00 +4.6434526069054955e+00 +0.0000000000000000e+00 +2.4999971878486345e+00 +2.8322437621296725e-02 -5.1993595599561682e-01 +3.6978143445321114e-03
2.6000000000000010e+00 +4.6431876199199458e+00 +0.0000000000000000e+00 +2.5999968367125113e+00 +2.8322409057467472e-02 -5.1993591179125509e-01 +3.6978102500684839e-03
2.7000000000000011e+00 +4.6429122413274042e+00 +0.0000000000000000e+00 +2.6999964574999518e+00 +2.8322383121542366e-02 -5.1993586697888050e-01 +3.6978052301666984e-03
2.8000000000000012e+00 +4.6426264711317398e+00 +0.0000000000000000e+00 +2.7999960491311002e+00 +2.8322360838216064e-02 -5.1993582120481563e-01 +3.6977991851711669e-03
2.9000000000000012e+00 +4.6423303093369546e+00 +0.0000000000000000e+00 +2.8999956105261004e+00 +2.8322343232335612e-02 -5.1993577411554570e-01 +3.6977920153715683e-03
3.0000000000000013e+00 +4.6420237559471875e+00 +0.0000000000000000e+00 +2.9999951406050980e+00 +2.8322331328917132e-02 -5.1993572535774257e-01 +3.6977836209967788e-03
3.1000000000000014e+00 +4.6417068109667250e+00 +0.0000000000000000e+00 +3.0999946382882388e+00 +2.8322326153162509e-02 -5.1993567457828815e-01 +3.6977739022088065e-03
3.2000000000000015e+00 +4.6413794744000043e+00 +0.0000000000000000e+00 +3.1999941024956695e+00 +2.8322328730476073e-02 -5.1993562142429850e-01 +3.6977627590967276e-03
3.3000000000000016e+00 +4.6410417462516245e+00 +0.0000000000000000e+00 +3.2999935321475378e+00 +2.8322340086481212e-02 -5.1993556554314646e-01 +3.6977500916706143e-03
3.4000000000000017e+00 +4.6406936265263488e+00 +0.0000000000000000e+00 +3.3999929261639918e+00 +2.8322361247037020e-02 -5.1993550658248533e-01 +3.6977357998554676e-03
3.5000000000000018e+00 +4.6403351152291155e+00 +0.0000000000000000e+00 +3.4999922834651813e+00 +2.8322393238254921e-02 -5.1993544419027327e-01 +3.6977197834851590e-03
3.6000000000000019e+00 +4.6399662123650440e+00 +0.0000000000000000e+00 +3.5999916029712562e+00 +2.8322437086515228e-02 -5.1993537801479561e-01 +3.6977019422963528e-03
3.7000000000000020e+00 +4.6395869179394404e+00 +0.0000000000000000e+00 +3.6999908836023683e+00 +2.8322493818483722e-02 -5.1993530770468899e-01 +3.6976821759224458e-03
3.8000000000000020e+00 +4.6391972319578070e+00 +0.0000000000000000e+00 +3.7999901242786698e+00 +2.8322564461128220e-02 -5.1993523290896437e-01 +3.6976603838875023e-03
3.9000000000000021e+00 +4.6387971544258475e+00 +0.0000000000000000e+00 +3.8999893239203147e+00 +2.8322650041735058e-02 -5.1993515327703088e-01 +3.6976364656001849e-03
4.0000000000000018e+00 +4.6383866853494737e+00 +0.0000000000000000e+00 +3.9999884814474584e+00 +2.8322751587925611e-02 -5.1993506845871862e-01 +3.6976103203476877e-03
4.1000000000000014e+00 +4.6379658247348141e+00 +0.0000000000000000e+00 +4.0999875957802576e+00 +2.8322869673984903e-02 -5.1993497822308976e-01 +3.6975818973295042e-03
4.2000000000000011e+00 +4.6375345725882164e+00 +0.0000000000000000e+00 +4.1999866658388703e+00 +2.8323003059031682e-02 -5.1993488281482925e-01 +3.6975513459047808e-03
4.3000000000000007e+00 +4.6370929289162444e+00 +0.0000000000000000e+00 +4.2999856905434548e+00 +2.8323150048126747e-02 -5.1993478259753101e-01 +3.6975188655508262e-03
4.4000000000000004e+00 +4.6366408937256685e+00 +0.0000000000000000e+00 +4.3999846688141737e+00 +2.8323308946225555e-02 -5.1993467793478476e-01 +3.6974846558099328e-03
4.5000000000000000e+00 +4.6361784670234618e+00 +0.0000000000000000e+00 +4.4999835995711885e+00 +2.8323478058166776e-02 -5.1993456919017011e-01 +3.6974489162949890e-03
4.5999999999999996e+00 +4.6357056488167903e+00 +0.0000000000000000e+00 +4.5999824817346635e+00 +2.8323655688660888e-02 -5.1993445672725280e-01 +3.6974118466950984e-03
4.6999999999999993e+00 +4.6352224391130070e+00 +0.0000000000000000e+00 +4.6999813142247646e+00 +2.8323840142278844e-02 -5.1993434090957669e-01 +3.6973736467811806e-03
4.7999999999999989e+00 +4.6347288379196439e+00 +0.0000000000000000e+00 +4.7999800959616596e+00 +2.8324029723440759e-02 -5.1993422210066020e-01 +3.6973345164115850e-03
4.8999999999999986e+00 +4.6342248452444057e+00 +0.0000000000000000e+00 +4.8999788258655164e+00 +2.8324222736404642e-02 -5.1993410066399115e-01 +3.6972946555376761e-03
4.9999999999999982e+00 +4.6337104610951609e+00 +0.0000000000000000e+00 +4.9999775028565061e+00 +2.8324417485255153e-02 -5.1993397696301957e-01 +3.6972542642094365e-03
5.0999999999999979e+00 +4.6331856854799351e+00 +0.0000000000000000e+00 +5.0999761258548002e+00 +2.8324612273892415e-02 -5.1993385136115378e-01 +3.6972135425810452e-03
5.1999999999999975e+00 +4.6326505184069058e+00 +0.0000000000000000e+00 +5.1999746937805718e+00 +2.8324805406020840e-02 -5.1993372422175432e-01 +3.6971726909164615e-03
5.2999999999999972e+00 +4.6321049598843924e+00 +0.0000000000000000e+00 +5.2999732055539965e+00 +2.8324995185138098e-02 -5.1993359590812904e-01 +3.6971319095949993e-03
5.3999999999999968e+00 +4.6315490099208496e+00 +0.0000000000000000e+00 +5.3999716600952503e+00 +2.8325179914523949e-02 -5.1993346678352637e-01 +3.6970913991168928e-03
5.4999999999999964e+00 +4.6309826685248607e+00 +0.0000000000000000e+00 +5.4999700563245124e+00 +2.8325357897229314e-02 -5.1993333721113133e-01 +3.6970513601088570e-03
5.5999999999999961e+00 +4.6304059357051308e+00 +0.0000000000000000e+00 +5.5999683931619613e+00 +2.8325527436065267e-02 -5.1993320755405803e-01 +3.6970119933296421e-03
5.6999999999999957e+00 +4.6298188114704786e+00 +0.0000000000000000e+00 +5.6999666695277780e+00 +2.8325686833592153e-02 -5.1993307817534729e-01 +3.6969734996755849e-03
5.7999999999999954e+00 +4.6292212958298293e+00 +0.0000000000000000e+00 +5.7999648843421454e+00 +2.8325834392108704e-02 -5.1993294943795765e-01 +3.6969360801861403e-03
5.8999999999999950e+00 +4.6286133887922070e+00 +0.0000000000000000e+00 +5.8999630365252473e+00 +2.8325968413641225e-02 -5.1993282170476229e-01 +3.6968999360494194e-03
5.9999999999999947e+00 +4.6279950903667286e+00 +0.0000000000000000e+00 +5.9999611249972693e+00 +2.8326087199932900e-02 -5.1993269533854247e-01 +3.6968652686077126e-03
6.0999999999999943e+00 +4.6273664005625958e+00 +0.0000000000000000e+00 +6.0999591486783977e+00 +2.8326189464452079e-02 -5.1993257064910126e-01 +3.6968322198420501e-03
6.1999999999999940e+00 +4.6267273193890901e+00 +0.0000000000000000e+00 +6.1999571064888199e+00 +2.8326275570406560e-02 -5.1993244773441183e-01 +3.6968006934456786e-03
6.2999999999999936e+00 +4.6260778468555683e+00 +0.0000000000000000e+00 +6.2999549973487250e+00 +2.8326346293794720e-02 -5.1993232663944799e-01 +3.6967705333663366e-03
6.3999999999999932e+00 +4.6254179829714648e+00 +0.0000000000000000e+00 +6.3999528201783029e+00 +2.8326402410429163e-02 -5.1993220740919699e-01 +3.6967415834384121e-03
6.4999999999999929e+00 +4.6247477277462865e+00 +0.0000000000000000e+00 +6.4999505738977463e+00 +2.8326444695930885e-02 -5.1993209008866093e-01 +3.6967136873774678e-03
6.5999999999999925e+00 +4.6240670811896170e+00 +0.0000000000000000e+00 +6.5999482574272470e+00 +2.8326473925723166e-02 -5.1993197472285435e-01 +3.6966866887747792e-03
6.6999999999999922e+00 +4.6233760433111115e+00 +0.0000000000000000e+00 +6.6999458696869993e+00 +2.8326490875025669e-02 -5.1993186135680525e-01 +3.6966604310918953e-03
6.7999999999999918e+00 +4.6226746141204984e+00 +0.0000000000000000e+00 +6.7999434095971987e+00 +2.8326496318848361e-02 -5.1993175003555547e-01 +3.6966347576551936e-03
6.8999999999999915e+00 +4.6219627936275760e+00 +0.0000000000000000e+00 +6.8999408760780412e+00 +2.8326491031985427e-02 -5.1993164080415910e-01 +3.6966095116504538e-03
6.9999999999999911e+00 +4.6212405818422138e+00 +0.0000000000000000e+00 +6.9999382680497240e+00 +2.8326475789009167e-02 -5.1993153370768286e-01 +3.6965845361174466e-03
7.0999999999999908e+00 +4.6205079787743513e+00 +0.0000000000000000e+00 +7.0999355844324459e+00 +2.8326451364263934e-02 -5.1993142879120646e-01 +3.6965596739445285e-03
7.1999999999999904e+00 +4.6197649844339965e+00 +0.0000000000000000e+00 +7.1999328241464076e+00 +2.8326418531859833e-02 -5.1993132609982196e-01 +3.6965347678632457e-03
7.2999999999999901e+00 +4.6190115988312241e+00 +0.0000000000000000e+00 +7.2999299861118097e+00 +2.8326378065666638e-02 -5.1993122567863426e-01 +3.6965096604429596e-03
7.3999999999999897e+00 +4.6182478219761771e+00 +0.0000000000000000e+00 +7.3999270692488546e+00 +2.8326330739307480e-02 -5.1993112757276028e-01 +3.6964841940854793e-03
7.4999999999999893e+00 +4.6174736538790633e+00 +0.0000000000000000e+00 +7.4999240724777447e+00 +2.8326277326152616e-02 -5.1993103182733014e-01 +3.6964582110197044e-03
7.5999999999999890e+00 +4.6166890945501562e+00 +0.0000000000000000e+00 +7.5999209947186852e+00 +2.8326218599313051e-02 -5.1993093848748584e-01 +3.6964315532962929e-03
7.6999999999999886e+00 +4.6158941439997934e+00 +0.0000000000000000e+00 +7.6999178348918820e+00 +2.8326155331634212e-02 -5.1993084759838226e-01 +3.6964040627823192e-03
7.7999999999999883e+00 +4.6150888022383754e+00 +0.0000000000000000e+00 +7.7999145919175410e+00 +2.8326088295689597e-02 -5.1993075920518717e-01 +3.6963755811559784e-03
7.8999999999999879e+00 +4.6142730692763649e+00 +0.0000000000000000e+00 +7.8999112647158700e+00 +2.8326018263774254e-02 -5.1993067335308185e-01 +3.6963459499012750e-03
7.9999999999999876e+00 +4.6134469451242861e+00 +0.0000000000000000e+00 +7.9999078522070777e+00 +2.8325946007898357e-02 -5.1993059008725928e-01 +3.6963150103027425e-03
8.0999999999999872e+00 +4.6126104297927251e+00 +0.0000000000000000e+00 +8.0999043533113735e+00 +2.8325872317592784e-02 -5.1993050940714869e-01 +3.6962826407093796e-03
8.1999999999999869e+00 +4.6117635232923266e+00 +0.0000000000000000e+00 +8.1999007669489679e+00 +2.8325798053760710e-02 -5.1993043112863235e-01 +3.6962488688287833e-03
8.2999999999999865e+00 +4.6109062256338005e+00 +0.0000000000000000e+00 +8.2998970920400730e+00 +2.8325724095539403e-02 -5.1993035502174623e-01 +3.6962137598501102e-03
8.3999999999999861e+00 +4.6100385368279264e+00 +0.0000000000000000e+00 +8.3998933275049019e+00 +2.8325651322459094e-02 -5.1993028085673154e-01 +3.6961773789896376e-03
8.4999999999999858e+00 +4.6091604568855562e+00 +0.0000000000000000e+00 +8.4998894722636678e+00 +2.8325580614457491e-02 -5.1993020840403947e-01 +3.6961397914926529e-03
8.5999999999999854e+00 +4.6082719858176207e+00 +0.0000000000000000e+00 +8.5998855252365871e+00 +2.8325512851894195e-02 -5.1993013743433869e-01 +3.6961010626353542e-03
8.6999999999999851e+00 +4.6073731236351314e+00 +0.0000000000000000e+00 +8.6998814853438748e+00 +2.8325448915565137e-02 -5.1993006771851857e-01 +3.6960612577267549e-03
8.7999999999999847e+00 +4.6064638703491898e+00 +0.0000000000000000e+00 +8.7998773515057493e+00 +2.8325389686716992e-02 -5.1992999902769443e-01 +3.6960204421105877e-03
8.8999999999999844e+00 +4.6055442259709869e+00 +0.0000000000000000e+00 +8.8998731226424272e+00 +2.8325336047061601e-02 -5.1992993113321517e-01 +3.6959786811672076e-03
8.9999999999999840e+00 +4.6046141905118105e+00 +0.0000000000000000e+00 +8.9998687976741305e+00 +2.8325288878790288e-02 -5.1992986380666451e-01 +3.6959360403155095e-03
9.0999999999999837e+00 +4.6036737639830489e+00 +0.0000000000000000e+00 +9.0998643755210793e+00 +2.8325249064588286e-02 -5.1992979681987006e-01 +3.6958925850148401e-03
9.1999999999999833e+00 +4.6027229463961969e+00 +0.0000000000000000e+00 +9.1998598551034974e+00 +2.8325217487649039e-02 -5.1992972994490605e-01 +3.6958483807669152e-03
9.2999999999999829e+00 +4.6017617377628595e+00 +0.0000000000000000e+00 +9.2998552353416084e+00 +2.8325195031688517e-02 -5.1992966295409904e-01 +3.6958034931177421e-03
9.3999999999999826e+00 +4.6007901380947542e+00 +0.0000000000000000e+00 +9.3998505151556397e+00 +2.8325182580959549e-02 -5.1992959562003416e-01 +3.6957579876595436e-03
9.4999999999999822e+00 +4.5998081474037189e+00 +0.0000000000000000e+00 +9.4998456934658169e+00 +2.8325181020266075e-02 -5.1992952771555823e-01 +3.6957119300326828e-03
9.5999999999999819e+00 +4.5988157657017155e+00 +0.0000000000000000e+00 +9.5998407691923688e+00 +2.8325191234977419e-02 -5.1992945901378718e-01 +3.6956653859276040e-03
9.6999999999999815e+00 +4.5978129930008338e+00 +0.0000000000000000e+00 +9.6998357412555265e+00 +2.8325214111042513e-02 -5.1992938928810950e-01 +3.6956184210867552e-03
9.7999999999999812e+00 +4.5967998293132952e+00 +0.0000000000000000e+00 +9.7998306085755225e+00 +2.8325250535004148e-02 -5.1992931831219202e-01 +3.6955711013065347e-03
9.8999999999999808e+00 +4.5957762746514597e+00 +0.0000000000000000e+00 +9.8998253700725911e+00 +2.8325301394013160e-02 -5.1992924585998446e-01 +3.6955234924392348e-03
9.9999999999999805e+00 +4.5947423290278273e+00 +0.0000000000000000e+00 +9.9998200246669686e+00 +2.8325367575842541e-02 -5.1992917170572572e-01 +3.6954756603949797e-03
1.0099999999999980e+01 +4.5936979924550458e+00 +0.0000000000000000e+00 +1.0099814571278893e+01 +2.8325449576089103e-02 -5.1992909568059975e-01 +3.6954276704786377e-03
1.0199999999999980e+01 +4.5926432649459121e+00 +0.0000000000000000e+00 +1.0199809008828604e+01 +2.8325546311054436e-02 -5.1992901784350620e-01 +3.6953795854057646e-03
1.0299999999999979e+01 +4.5915781465133705e+00 +0.0000000000000000e+00 +1.0299803336236343e+01 +2.8325656300102121e-02 -5.1992893830974451e-01 +3.6953314673489309e-03
1.0399999999999979e+01 +4.5905026371705118e+00 +0.0000000000000000e+00 +1.0399797552422354e+01 +2.8325778062689558e-02 -5.1992885719361770e-01 +3.6952833786193296e-03
1.0499999999999979e+01 +4.5894167369305707e+00 +0.0000000000000000e+00 +1.0499791656306884e+01 +2.8325910118369071e-02 -5.1992877460840603e-01 +3.6952353816702790e-03
1.0599999999999978e+01 +4.5883204458069233e+00 +0.0000000000000000e+00 +1.0599785646810183e+01 +2.8326050986789031e-02 -5.1992869066634118e-01 +3.6951875391006868e-03
1.0699999999999978e+01 +4.5872137638130850e+00 +0.0000000000000000e+00 +1.0699779522852499e+01 +2.8326199187695002e-02 -5.1992860547858166e-01 +3.6951399136585239e-03
1.0799999999999978e+01 +4.5860966909627088e+00 +0.0000000000000000e+00 +1.0799773283354083e+01 +2.8326353240931006e-02 -5.1992851915518601e-01 +3.6950925682442829e-03
1.0899999999999977e+01 +4.5849692272695819e+00 +0.0000000000000000e+00 +1.0899766927235193e+01 +2.8326511666440735e-02 -5.1992843180508774e-01 +3.6950455659144239e-03
1.0999999999999977e+01 +4.5838313727476248e+00 +0.0000000000000000e+00 +1.0999760453416084e+01 +2.8326672984268841e-02 -5.1992834353606987e-01 +3.6949989698848227e-03
1.1099999999999977e+01 +4.5826831274108883e+00 +0.0000000000000000e+00 +1.1099753860817012e+01 +2.8326835714562317e-02 -5.1992825445473911e-01 +3.6949528435341831e-03
1.1199999999999976e+01 +4.5815244912735515e+00 +0.0000000000000000e+00 +1.1199747148358240e+01 +2.8326998377571831e-02 -5.1992816466650038e-01 +3.6949072504074724e-03
1.1299999999999976e+01 +4.5803554643499202e+00 +0.0000000000000000e+00 +1.1299740314960030e+01 +2.8327159493653189e-02 -5.1992807427553156e-01 +3.6948622542193189e-03
1.1399999999999975e+01 +4.5791760466544238e+00 +0.0000000000000000e+00 +1.1399733359542646e+01 +2.8327317583268802e-02 -5.1992798338475699e-01 +3.6948179188574107e-03
1.1499999999999975e+01 +4.5779862382016141e+00 +0.0000000000000000e+00 +1.1499726281026353e+01 +2.8327471166989190e-02 -5.1992789209582313e-01 +3.6947743083858850e-03
1.1599999999999975e+01 +4.5767860390061639e+00 +0.0000000000000000e+00 +1.1599719078331422e+01 +2.8327618765494555e-02 -5.1992780050907228e-01 +3.6947314870486958e-03
1.1699999999999974e+01 +4.5755754490828631e+00 +0.0000000000000000e+00 +1.1699711750378123e+01 +2.8327758899576387e-02 -5.1992770872351701e-01 +3.6946895192729863e-03
1.1799999999999974e+01 +4.5743544684466180e+00 +0.0000000000000000e+00 +1.1799704296086727e+01 +2.8327890090139175e-02 -5.1992761683681554e-01 +3.6946484696724303e-03
