# trajectory
# s[mm] rx[mm] ry[mm] rz[mm] px[rad] py[rad] pz[rad]
0.0000000000000000e+00 +4.6467000000000001e+00 +0.0000000000000000e+00 +0.0000000000000000e+00 +0.0000000000000000e+00 +0.0000000000000000e+00 +1.0000000000000000e+00
1.0000000000000001e-01 +4.6466956943486624e+00 +0.0000000000000000e+00 +9.9999999876409118e-02 -8.6113024562884869e-05 +0.0000000000000000e+00 +9.9999999629227354e-01
2.0000000000000001e-01 +4.6466827773954904e+00 +0.0000000000000000e+00 +1.9999999901127302e-01 -1.7222603703391011e-04 +0.0000000000000000e+00 +9.9999998516909605e-01
3.0000000000000004e-01 +4.6466612491415891e+00 +0.0000000000000000e+00 +2.9999999666304672e-01 -2.5833903949011388e-04 +0.0000000000000000e+00 +9.9999996663046986e-01
4.0000000000000002e-01 +4.6466311095878616e+00 +0.0000000000000000e+00 +3.9999999209018544e-01 -3.4445203386264931e-04 +0.0000000000000000e+00 +9.9999994067639653e-01
5.0000000000000000e-01 +4.6465923587350266e+00 +0.0000000000000000e+00 +4.9999998455114447e-01 -4.3056502193678723e-04 +0.0000000000000000e+00 +9.9999990730687671e-01
5.9999999999999998e-01 +4.6465449965836294e+00 +0.0000000000000000e+00 +5.9999997330437926e-01 -5.1667800535192270e-04 +0.0000000000000000e+00 +9.9999986652191053e-01
6.9999999999999996e-01 +4.6464890231340608e+00 +0.0000000000000000e+00 +6.9999995760834510e-01 -6.0279098560158556e-04 +0.0000000000000000e+00 +9.9999981832149742e-01
7.9999999999999993e-01 +4.6464244383865694e+00 +0.0000000000000000e+00 +7.9999993672149716e-01 -6.8890396403345478e-04 +0.0000000000000000e+00 +9.9999976270563606e-01
8.9999999999999991e-01 +4.6463512423412743e+00 +0.0000000000000000e+00 +8.9999990990229062e-01 -7.7501694184937682e-04 +0.0000000000000000e+00 +9.9999969967432489e-01
9.9999999999999989e-01 +4.6462694349981843e+00 +0.0000000000000000e+00 +9.9999987640918042e-01 -8.6112992010538780e-04 +0.0000000000000000e+00 +9.9999962922756169e-01
1.0999999999999999e+00 +4.6461790163572081e+00 +0.0000000000000000e+00 +1.0999998355006211e+00 -9.4724289971173908e-04 +0.0000000000000000e+00 +9.9999955136534391e-01
1.2000000000000000e+00 +4.6460799864181714e+00 +0.0000000000000000e+00 +1.1999997864350671e+00 -1.0333558814329279e-03 +0.0000000000000000e+00 +9.9999946608766865e-01
1.3000000000000000e+00 +4.6459723451808301e+00 +0.0000000000000000e+00 +1.2999997284709728e+00 -1.1194688658877300e-03 +0.0000000000000000e+00 +9.9999937339453282e-01
1.4000000000000001e+00 +4.6458560926448866e+00 +0.0000000000000000e+00 +1.3999996608667917e+00 -1.2055818535492387e-03 +0.0000000000000000e+00 +9.9999927328593308e-01
1.5000000000000002e+00 +4.6457312288100026e+00 +0.0000000000000000e+00 +1.4999995828809773e+00 -1.2916948447449052e-03 +0.0000000000000000e+00 +9.9999916576186598e-01
1.6000000000000003e+00 +4.6455977536758137e+00 +0.0000000000000000e+00 +1.5999994937719826e+00 -1.3778078396565847e-03 +0.0000000000000000e+00 +9.9999905082232798e-01
1.7000000000000004e+00 +4.6454556672419463e+00 +0.0000000000000000e+00 +1.6999993927982604e+00 -1.4639208383205851e-03 +0.0000000000000000e+00 +9.9999892846731542e-01
1.8000000000000005e+00 +4.6453049695080280e+00 +0.0000000000000000e+00 +1.7999992792182631e+00 -1.5500338406277206e-03 +0.0000000000000000e+00 +9.9999879869682484e-01
1.9000000000000006e+00 +4.6451456604737071e+00 +0.0000000000000000e+00 +1.8999991522904427e+00 -1.6361468463233684e-03 +0.0000000000000000e+00 +9.9999866151085282e-01
2.0000000000000004e+00 +4.6449777401386632e+00 +0.0000000000000000e+00 +1.9999990112732509e+00 -1.7222598550075297e-03 +0.0000000000000000e+00 +9.9999851690939612e-01
2.1000000000000005e+00 +4.6448012085026233e+00 +0.0000000000000000e+00 +2.0999988554251390e+00 -1.8083728661340082e-03 +0.0000000000000000e+00 +9.9999836489245175e-01
2.2000000000000006e+00 +4.6446160655653781e+00 +0.0000000000000000e+00 +2.1999986840045582e+00 -1.8944858790007223e-03 +0.0000000000000000e+00 +9.9999820546001694e-01
2.3000000000000007e+00 +4.6444223113267942e+00 +0.0000000000000000e+00 +2.2999984962699593e+00 -1.9805988927399840e-03 +0.0000000000000000e+00 +9.9999803861208947e-01
2.4000000000000008e+00 +4.6442199457868352e+00 +0.0000000000000000e+00 +2.3999982914797928e+00 -2.0667119063176196e-03 +0.0000000000000000e+00 +9.9999786434866755e-01
2.5000000000000009e+00 +4.6440089689455757e+00 +0.0000000000000000e+00 +2.4999980688925096e+00 -2.1528249185329704e-03 +0.0000000000000000e+00 +9.9999768266974998e-01
2.6000000000000010e+00 +4.6437893808032191e+00 +0.0000000000000000e+00 +2.5999978277665599e+00 -2.2389379280188916e-03 +0.0000000000000000e+00 +9.9999749357533607e-01
2.7000000000000011e+00 +4.6435611813601136e+00 +0.0000000000000000e+00 +2.6999975673603940e+00 -2.3250509332417473e-03 +0.0000000000000000e+00 +9.9999729706542595e-01
2.8000000000000012e+00 +4.6433243706167691e+00 +0.0000000000000000e+00 +2.7999972869324621e+00 -2.4111639325014008e-03 +0.0000000000000000e+00 +9.9999709314002039e-01
2.9000000000000012e+00 +4.6430789485738737e+00 +0.0000000000000000e+00 +2.8999969857412151e+00 -2.4972769239312020e-03 +0.0000000000000000e+00 +9.9999688179912105e-01
3.0000000000000013e+00 +4.6428249152323113e+00 +0.0000000000000000e+00 +2.9999966630451036e+00 -2.5833899054979719e-03 +0.0000000000000000e+00 +9.9999666304273049e-01
3.1000000000000014e+00 +4.6425622705931762e+00 +0.0000000000000000e+00 +3.0999963181025785e+00 -2.6695028750019821e-03 +0.0000000000000000e+00 +9.9999643687085227e-01
3.2000000000000015e+00 +4.6422910146577916e+00 +0.0000000000000000e+00 +3.1999959501720912e+00 -2.7556158300769320e-03 +0.0000000000000000e+00 +9.9999620328349104e-01
3.3000000000000016e+00 +4.6420111474277261e+00 +0.0000000000000000e+00 +3.2999955585120939e+00 -2.8417287681899218e-03 +0.0000000000000000e+00 +9.9999596228065246e-01
3.4000000000000017e+00 +4.6417226689048094e+00 +0.0000000000000000e+00 +3.3999951423810391e+00 -2.9278416866414226e-03 +0.0000000000000000e+00 +9.9999571386234354e-01
3.5000000000000018e+00 +4.6414255790911492e+00 +0.0000000000000000e+00 +3.4999947010373802e+00 -3.0139545825652418e-03 +0.0000000000000000e+00 +9.9999545802857237e-01
3.6000000000000019e+00 +4.6411198779891487e+00 +0.0000000000000000e+00 +3.5999942337395718e+00 -3.1000674529284857e-03 +0.0000000000000000e+00 +9.9999519477934862e-01
3.7000000000000020e+00 +4.6408055656015224e+00 +0.0000000000000000e+00 +3.6999937397460689e+00 -3.1861802945315192e-03 +0.0000000000000000e+00 +9.9999492411468316e-01
3.8000000000000020e+00 +4.6404826419313130e+00 +0.0000000000000000e+00 +3.7999932183153278e+00 -3.2722931040079202e-03 +0.0000000000000000e+00 +9.9999464603458832e-01
3.9000000000000021e+00 +4.6401511069819090e+00 +0.0000000000000000e+00 +3.8999926687058060e+00 -3.3584058778244326e-03 +0.0000000000000000e+00 +9.9999436053907820e-01
4.0000000000000018e+00 +4.6398109607570595e+00 +0.0000000000000000e+00 +3.9999920901759634e+00 -3.4445186122809140e-03 +0.0000000000000000e+00 +9.9999406762816834e-01
4.1000000000000014e+00 +4.6394622032608925e+00 +0.0000000000000000e+00 +4.0999914819842607e+00 -3.5306313035271130e-03 +0.0000000000000000e+00 +9.9999376730187606e-01
4.2000000000000011e+00 +4.6391048344979220e+00 +0.0000000000000000e+00 +4.1999908433891600e+00 -3.6167439477478094e-03 +0.0000000000000000e+00 +9.9999345956021957e-01
4.3000000000000007e+00 +4.6387388544730310e+00 +0.0000000000000000e+00 +4.2999901736491264e+00 -3.7028565413479747e-03 +0.0000000000000000e+00 +9.9999314440321752e-01
4.4000000000000004e+00 +4.6383642631914519e+00 +0.0000000000000000e+00 +4.3999894720226260e+00 -3.7889690809695346e-03 +0.0000000000000000e+00 +9.9999282183088867e-01
4.5000000000000000e+00 +4.6379810606587411e+00 +0.0000000000000000e+00 +4.4999887377681276e+00 -3.8750815634912856e-03 +0.0000000000000000e+00 +9.9999249184325190e-01
4.5999999999999996e+00 +4.6375892468807542e+00 +0.0000000000000000e+00 +4.5999879701441007e+00 -3.9611939860288064e-03 +0.0000000000000000e+00 +9.9999215444032608e-01
4.6999999999999993e+00 +4.6371888218636235e+00 +0.0000000000000000e+00 +4.6999871684090175e+00 -4.0473063459343633e-03 +0.0000000000000000e+00 +9.9999180962212986e-01
4.7999999999999989e+00 +4.6367797856137356e+00 +0.0000000000000000e+00 +4.7999863318213514e+00 -4.1334186407968156e-03 +0.0000000000000000e+00 +9.9999145738868178e-01
4.8999999999999986e+00 +4.6363621381377049e+00 +0.0000000000000000e+00 +4.8999854596395789e+00 -4.2195308684415114e-03 +0.0000000000000000e+00 +9.9999109773999995e-01
4.9999999999999982e+00 +4.6359358794423526e+00 +0.0000000000000000e+00 +4.9999845511221777e+00 -4.3056430269301817e-03 +0.0000000000000000e+00 +9.9999073067610211e-01
5.0999999999999979e+00 +4.6355010095346811e+00 +0.0000000000000000e+00 +5.0999836055276262e+00 -4.3917551145608320e-03 +0.0000000000000000e+00 +9.9999035619700538e-01
5.1999999999999975e+00 +4.6350575284218518e+00 +0.0000000000000000e+00 +5.1999826221144057e+00 -4.4778671298676236e-03 +0.0000000000000000e+00 +9.9998997430272629e-01
5.2999999999999972e+00 +4.6346054361111602e+00 +0.0000000000000000e+00 +5.2999816001409989e+00 -4.5639790716207563e-03 +0.0000000000000000e+00 +9.9998958499328072e-01
5.3999999999999968e+00 +4.6341447326100127e+00 +0.0000000000000000e+00 +5.3999805388658899e+00 -4.6500909388263465e-03 +0.0000000000000000e+00 +9.9998918826868355e-01
5.4999999999999964e+00 +4.6336754179259048e+00 +0.0000000000000000e+00 +5.4999794375475641e+00 -4.7362027307262947e-03 +0.0000000000000000e+00 +9.9998878412894887e-01
5.5999999999999961e+00 +4.6331974920663948e+00 +0.0000000000000000e+00 +5.5999782954445090e+00 -4.8223144467981561e-03 +0.0000000000000000e+00 +9.9998837257408957e-01
5.6999999999999957e+00 +4.6327109550390819e+00 +0.0000000000000000e+00 +5.6999771118152118e+00 -4.9084260867550021e-03 +0.0000000000000000e+00 +9.9998795360411763e-01
5.7999999999999954e+00 +4.6322158068515824e+00 +0.0000000000000000e+00 +5.7999758859181627e+00 -4.9945376505452803e-03 +0.0000000000000000e+00 +9.9998752721904349e-01
5.8999999999999950e+00 +4.6317120475115061e+00 +0.0000000000000000e+00 +5.8999746170118508e+00 -5.0806491383526657e-03 +0.0000000000000000e+00 +9.9998709341887659e-01
5.9999999999999947e+00 +4.6311996770264310e+00 +0.0000000000000000e+00 +5.9999733043547678e+00 -5.1667605505959146e-03 +0.0000000000000000e+00 +9.9998665220362459e-01
6.0999999999999943e+00 +4.6306786954038843e+00 +0.0000000000000000e+00 +6.0999719472054057e+00 -5.2528718879224544e-03 +0.0000000000000000e+00 +9.9998620357329382e-01
6.1999999999999940e+00 +4.6301491026513171e+00 +0.0000000000000000e+00 +6.1999705448222571e+00 -5.3389831511394571e-03 +0.0000000000000000e+00 +9.9998574752788938e-01
6.2999999999999936e+00 +4.6296108987760967e+00 +0.0000000000000000e+00 +6.2999690964638146e+00 -5.4250943411450515e-03 +0.0000000000000000e+00 +9.9998528406741549e-01
6.3999999999999932e+00 +4.6290640837854955e+00 +0.0000000000000000e+00 +6.3999676013885711e+00 -5.5112054589222265e-03 +0.0000000000000000e+00 +9.9998481319187515e-01
6.4999999999999929e+00 +4.6285086576866838e+00 +0.0000000000000000e+00 +6.4999660588550210e+00 -5.5973165055390193e-03 +0.0000000000000000e+00 +9.9998433490127070e-01
6.5999999999999925e+00 +4.6279446204867210e+00 +0.0000000000000000e+00 +6.5999644681216569e+00 -5.6834274821487051e-03 +0.0000000000000000e+00 +9.9998384919560324e-01
6.6999999999999922e+00 +4.6273719721925461e+00 +0.0000000000000000e+00 +6.6999628284469726e+00 -5.7695383899900024e-03 +0.0000000000000000e+00 +9.9998335607487299e-01
6.7999999999999918e+00 +4.6267907128109709e+00 +0.0000000000000000e+00 +6.7999611390894623e+00 -5.8556492303872840e-03 +0.0000000000000000e+00 +9.9998285553907895e-01
6.8999999999999915e+00 +4.6262008423486698e+00 +0.0000000000000000e+00 +6.8999593993076198e+00 -5.9417600047507969e-03 +0.0000000000000000e+00 +9.9998234758821902e-01
6.9999999999999911e+00 +4.6256023608121719e+00 +0.0000000000000000e+00 +6.9999576083599377e+00 -6.0278707145768901e-03 +0.0000000000000000e+00 +9.9998183222228998e-01
7.0999999999999908e+00 +4.6249952682078526e+00 +0.0000000000000000e+00 +7.0999557655049088e+00 -6.1139813614482542e-03 +0.0000000000000000e+00 +9.9998130944128727e-01
7.1999999999999904e+00 +4.6243795645419246e+00 +0.0000000000000000e+00 +7.1999538700010257e+00 -6.2000919470341686e-03 +0.0000000000000000e+00 +9.9998077924520523e-01
7.2999999999999901e+00 +4.6237552498204302e+00 +0.0000000000000000e+00 +7.2999519211067803e+00 -6.2862024730907544e-03 +0.0000000000000000e+00 +9.9998024163403687e-01
7.3999999999999897e+00 +4.6231223240492296e+00 +0.0000000000000000e+00 +7.3999499180806634e+00 -6.3723129414612403e-03 +0.0000000000000000e+00 +9.9997969660777386e-01
7.4999999999999893e+00 +4.6224807872339966e+00 +0.0000000000000000e+00 +7.4999478601811651e+00 -6.4584233540762358e-03 +0.0000000000000000e+00 +9.9997914416640654e-01
7.5999999999999890e+00 +4.6218306393802058e+00 +0.0000000000000000e+00 +7.5999457466667746e+00 -6.5445337129540117e-03 +0.0000000000000000e+00 +9.9997858430992381e-01
7.6999999999999886e+00 +4.6211718804931268e+00 +0.0000000000000000e+00 +7.6999435767959792e+00 -6.6306440202007913e-03 +0.0000000000000000e+00 +9.9997801703831313e-01
7.7999999999999883e+00 +4.6205045105778133e+00 +0.0000000000000000e+00 +7.7999413498272654e+00 -6.7167542780110483e-03 +0.0000000000000000e+00 +9.9997744235156039e-01
7.8999999999999879e+00 +4.6198285296390962e+00 +0.0000000000000000e+00 +7.8999390650191188e+00 -6.8028644886678159e-03 +0.0000000000000000e+00 +9.9997686024965016e-01
7.9999999999999876e+00 +4.6191439376815726e+00 +0.0000000000000000e+00 +7.9999367216300223e+00 -6.8889746545430014e-03 +0.0000000000000000e+00 +9.9997627073256523e-01
8.0999999999999872e+00 +4.6184507347095991e+00 +0.0000000000000000e+00 +8.0999343189184589e+00 -6.9750847780751333e-03 +0.0000000000000000e+00 +9.9997567380028707e-01
8.1999999999999869e+00 +4.6177489207272933e+00 +0.0000000000000000e+00 +8.1999318561429071e+00 -7.0611948615207885e-03 +0.0000000000000000e+00 +9.9997506945279746e-01
8.2999999999999865e+00 +4.6170384957385693e+00 +0.0000000000000000e+00 +8.2999293325618453e+00 -7.1473049067053845e-03 +0.0000000000000000e+00 +9.9997445769008020e-01
8.3999999999999861e+00 +4.6163194597471806e+00 +0.0000000000000000e+00 +8.3999267474337493e+00 -7.2334149150002879e-03 +0.0000000000000000e+00 +9.9997383851212174e-01
8.4999999999999858e+00 +4.6155918127567670e+00 +0.0000000000000000e+00 +8.4999241000170951e+00 -7.3195248873226008e-03 +0.0000000000000000e+00 +9.9997321191891098e-01
8.5999999999999854e+00 +4.6148555547708989e+00 +0.0000000000000000e+00 +8.5999213895703566e+00 -7.4056348241349412e-03 +0.0000000000000000e+00 +9.9997257791043992e-01
8.6999999999999851e+00 +4.6141106857931229e+00 +0.0000000000000000e+00 +8.6999186153520078e+00 -7.4917447254452142e-03 +0.0000000000000000e+00 +9.9997193648670368e-01
8.7999999999999847e+00 +4.6133572058270076e+00 +0.0000000000000000e+00 +8.7999157766205212e+00 -7.5778545908063788e-03 +0.0000000000000000e+00 +9.9997128764770038e-01
8.8999999999999844e+00 +4.6125951148761892e+00 +0.0000000000000000e+00 +8.8999128726343724e+00 -7.6639644193162064e-03 +0.0000000000000000e+00 +9.9997063139343190e-01
8.9999999999999840e+00 +4.6118244129444168e+00 +0.0000000000000000e+00 +8.9999099026520337e+00 -7.7500742096170312e-03 +0.0000000000000000e+00 +9.9996996772390356e-01
9.0999999999999837e+00 +4.6110451000355992e+00 +0.0000000000000000e+00 +9.0999068659319793e+00 -7.8361839598954982e-03 +0.0000000000000000e+00 +9.9996929663912482e-01
9.1999999999999833e+00 +4.6102571761538469e+00 +0.0000000000000000e+00 +9.1999037617326849e+00 -7.9222936678822967e-03 +0.0000000000000000e+00 +9.9996861813910898e-01
9.2999999999999829e+00 +4.6094606413035226e+00 +0.0000000000000000e+00 +9.2999005893126281e+00 -8.0084033308518987e-03 +0.0000000000000000e+00 +9.9996793222387370e-01
9.3999999999999826e+00 +4.6086554954892831e+00 +0.0000000000000000e+00 +9.3998973479302865e+00 -8.0945129456222800e-03 +0.0000000000000000e+00 +9.9996723889344119e-01
9.4999999999999822e+00 +4.6078417387161261e+00 +0.0000000000000000e+00 +9.4998940368441431e+00 -8.1806225085546396e-03 +0.0000000000000000e+00 +9.9996653814783820e-01
9.5999999999999819e+00 +4.6070193709894367e+00 +0.0000000000000000e+00 +9.5998906553126826e+00 -8.2667320155531097e-03 +0.0000000000000000e+00 +9.9996582998709638e-01
9.6999999999999815e+00 +4.6061883923150315e+00 +0.0000000000000000e+00 +9.6998872025943932e+00 -8.3528414620644663e-03 +0.0000000000000000e+00 +9.9996511441125246e-01
9.7999999999999812e+00 +4.6053488026992069e+00 +0.0000000000000000e+00 +9.7998836779477649e+00 -8.4389508430778252e-03 +0.0000000000000000e+00 +9.9996439142034843e-01
9.8999999999999808e+00 +4.6045006021487813e+00 +0.0000000000000000e+00 +9.8998800806312950e+00 -8.5250601531243354e-03 +0.0000000000000000e+00 +9.9996366101443168e-01
9.9999999999999805e+00 +4.6036437906711445e+00 +0.0000000000000000e+00 +9.9998764099034858e+00 -8.6111693862768665e-03 +0.0000000000000000e+00 +9.9996292319355540e-01
1.0099999999999980e+01 +4.6027783682743006e+00 +0.0000000000000000e+00 +1.0099872665022843e+01 -8.6972785361873316e-03 +0.0000000000000000e+00 +9.9996217795777831e-01
1.0199999999999980e+01 +4.6019043349668944e+00 +0.0000000000000000e+00 +1.0199868845247881e+01 -8.7833875965019886e-03 +0.0000000000000000e+00 +9.9996142530716114e-01
1.0299999999999979e+01 +4.6010216907581860e+00 +0.0000000000000000e+00 +1.0299864949837117e+01 -8.8694965612781396e-03 +0.0000000000000000e+00 +9.9996066524176297e-01
1.0399999999999979e+01 +4.6001304356580075e+00 +0.0000000000000000e+00 +1.0399860978049077e+01 -8.9556054250223231e-03 +0.0000000000000000e+00 +9.9995989776164074e-01
1.0499999999999979e+01 +4.5992305696767177e+00 +0.0000000000000000e+00 +1.0499856929142290e+01 -9.0417141826905096e-03 +0.0000000000000000e+00 +9.9995912286684907e-01
1.0599999999999978e+01 +4.5983220928251587e+00 +0.0000000000000000e+00 +1.0599852802375292e+01 -9.1278228296882893e-03 +0.0000000000000000e+00 +9.9995834055744015e-01
1.0699999999999978e+01 +4.5974050051146076e+00 +0.0000000000000000e+00 +1.0699848597006625e+01 -9.2139313618710746e-03 +0.0000000000000000e+00 +9.9995755083346327e-01
1.0799999999999978e+01 +4.5964793065567351e+00 +0.0000000000000000e+00 +1.0799844312294834e+01 -9.3000397755443071e-03 +0.0000000000000000e+00 +9.9995675369496495e-01
1.0899999999999977e+01 +4.5955449971635582e+00 +0.0000000000000000e+00 +1.0899839947498469e+01 -9.3861480674636601e-03 +0.0000000000000000e+00 +9.9995594914198849e-01
1.0999999999999977e+01 +4.5946020769473952e+00 +0.0000000000000000e+00 +1.0999835501876085e+01 -9.4722562348352538e-03 +0.0000000000000000e+00 +9.9995513717457396e-01
1.1099999999999977e+01 +4.5936505459208217e+00 +0.0000000000000000e+00 +1.1099830974686238e+01 -9.5583642753158653e-03 +0.0000000000000000e+00 +9.9995431779275790e-01
1.1199999999999976e+01 +4.5926904040966257e+00 +0.0000000000000000e+00 +1.1199826365187491e+01 -9.6444721870131596e-03 +0.0000000000000000e+00 +9.9995349099657305e-01
1.1299999999999976e+01 +4.5917216514877603e+00 +0.0000000000000000e+00 +1.1299821672638409e+01 -9.7305799684859005e-03 +0.0000000000000000e+00 +9.9995265678604828e-01
1.1399999999999975e+01 +4.5907442881073024e+00 +0.0000000000000000e+00 +1.1399816896297557e+01 -9.8166876187441906e-03 +0.0000000000000000e+00 +9.9995181516120846e-01
1.1499999999999975e+01 +4.5897583139684039e+00 +0.0000000000000000e+00 +1.1499812035423506e+01 -9.9027951372496932e-03 +0.0000000000000000e+00 +9.9995096612207401e-01
1.1599999999999975e+01 +4.5887637290842482e+00 +0.0000000000000000e+00 +1.1599807089274830e+01 -9.9889025239158751e-03 +0.0000000000000000e+00 +9.9995010966866105e-01
1.1699999999999974e+01 +4.5877605334680043e+00 +0.0000000000000000e+00 +1.1699802057110098e+01 -1.0075009779108239e-02 +0.0000000000000000e+00 +9.9994924580098088e-01
1.1799999999999974e+01 +4.5867487271327825e+00 +0.0000000000000000e+00 +1.1799796938187885e+01 -1.0161116903644570e-02 +0.0000000000000000e+00 +9.9994837451903984e-01
