# multipoles
# s[mm] polynom_b[n=0][T/m^n] polynom_b[n=1][T/m^n] polynom_b[n=2][T/m^n] polynom_b[n=3][T/m^n] polynom_b[n=4][T/m^n] polynom_b[n=5][T/m^n] polynom_b[n=6][T/m^n] 
+0.0000000000000000e+00 +4.7678163165664200e-01 -1.2264936412924410e-03 -2.4012558707163509e-01 +3.7076357197866692e+01 +1.2770658202607524e+03 -1.6065453479196326e+05 -6.2133510560601931e+06 
-1.0000000000000001e-01 +4.7678164266123313e-01 -1.2190607015422357e-03 -2.4239735122690073e-01 +3.6661425452182549e+01 +1.3141236980944955e+03 -1.5808844189678502e+05 -6.3409679771285625e+06 
-2.0000000000000001e-01 +4.7678165791635402e-01 -1.2126839411077234e-03 -2.4497830556662156e-01 +3.6268625443393674e+01 +1.3563144320321162e+03 -1.5560178595902698e+05 -6.4930439803817123e+06 
-3.0000000000000004e-01 +4.7678167703475605e-01 -1.2072361070994369e-03 -2.4783828013234999e-01 +3.5895737891086881e+01 +1.4031780366644289e+03 -1.5318722729825118e+05 -6.6675755961169144e+06 
-4.0000000000000002e-01 +4.7678169962914885e-01 -1.2025899572330537e-03 -2.5094710209072651e-01 +3.5540543780331035e+01 +1.4542545086184616e+03 -1.5083742812479273e+05 -6.8625593625720702e+06 
-5.0000000000000000e-01 +4.7678172531221108e-01 -1.1986182542374092e-03 -2.5427459655180606e-01 +3.5200824215029172e+01 +1.5090838371652785e+03 -1.4854505170152395e+05 -7.0759918662533034e+06 
-5.9999999999999998e-01 +4.7678175369661441e-01 -1.1951937650452416e-03 -2.5779058871424942e-01 +3.4874360402477386e+01 +1.5672060349726337e+03 -1.4630276223706829e+05 -7.3058698659169059e+06 
-6.9999999999999996e-01 +4.7678178439503277e-01 -1.1921892566648241e-03 -2.6146490376829368e-01 +3.4558933557789771e+01 +1.6281611268869240e+03 -1.4410322437117316e+05 -7.5501902192062316e+06 
-7.9999999999999993e-01 +4.7678181702013400e-01 -1.1894774932601868e-03 -2.6526736574239307e-01 +3.4252324826170465e+01 +1.6914891227088810e+03 -1.4193910270808887e+05 -7.8069497432084000e+06 
-8.9999999999999991e-01 +4.7678185118461858e-01 -1.1869312322509774e-03 -2.6916780083423852e-01 +3.3952315191261505e+01 +1.7567300680395824e+03 -1.3980306131063571e+05 -8.0741454265089873e+06 
-9.9999999999999989e-01 +4.7678188650119774e-01 -1.1844232213093523e-03 -2.7313603428617211e-01 +3.3656685398997801e+01 +1.8234239799434101e+03 -1.3768776326005213e+05 -8.3497741159958690e+06 
-1.0999999999999999e+00 +4.7678192258263524e-01 -1.1818261964151547e-03 -2.7714189457556998e-01 +3.3363215916807611e+01 +1.8911109169020356e+03 -1.3558587042170975e+05 -8.6318328268256988e+06 
-1.2000000000000000e+00 +4.7678195904173776e-01 -1.1790128769869892e-03 -2.8115521134304261e-01 +3.3069686806648434e+01 +1.9593309297691235e+03 -1.3349004272554145e+05 -8.9183184882351216e+06 
-1.3000000000000000e+00 +4.7678199549136629e-01 -1.1758559630000165e-03 -2.8514581624999191e-01 +3.2773877661110276e+01 +2.0276240719501186e+03 -1.3139293780916077e+05 -9.2072279799729735e+06 
-1.4000000000000001e+00 +4.7678203154445892e-01 -1.1722281337459908e-03 -2.8908354457836927e-01 +3.2473567573725894e+01 +2.0955304196055044e+03 -1.2928721083175893e+05 -9.4965582058850098e+06 
-1.5000000000000002e+00 +4.7678206681401780e-01 -1.1680020412137694e-03 -2.9293823335574404e-01 +3.2166534969285166e+01 +2.1625900305309005e+03 -1.2716551352184251e+05 -9.7843058882802241e+06 
-1.6000000000000003e+00 +4.7678210091314938e-01 -1.1630503099876010e-03 -2.9667972469426590e-01 +3.1850557612639523e+01 +2.2283429928918936e+03 -1.2502049422381484e+05 -1.0068467763176095e+07 
-1.7000000000000004e+00 +4.7678213345505205e-01 -1.1572455313181398e-03 -3.0027786453008237e-01 +3.1523412453353878e+01 +2.2923294014243943e+03 -1.2284479701610898e+05 -1.0347040473745801e+07 
-1.8000000000000005e+00 +4.7678216405302287e-01 -1.1504602638517029e-03 -3.0370250146739292e-01 +3.1182875659280004e+01 +2.3540893199063462e+03 -1.2063106189623462e+05 -1.0618020355445933e+07 
-1.9000000000000006e+00 +4.7678219232049784e-01 -1.1425670246943704e-03 -3.0692349186123113e-01 +3.0826722373931769e+01 +2.4131628723805261e+03 -1.1837192340121872e+05 -1.0879403856492352e+07 
-2.0000000000000004e+00 +4.7678221787101854e-01 -1.1334383048965543e-03 -3.0991069190856585e-01 +3.0452726988270182e+01 +2.4690900757470681e+03 -1.1606000838358981e+05 -1.1129187007091101e+07 
-2.1000000000000005e+00 +4.7678224039790063e-01 -1.1229976126999638e-03 -3.1263924406450261e-01 +3.0059747411752124e+01 +2.5214737823340915e+03 -1.1369240555793465e+05 -1.1365633660970556e+07 
-2.2000000000000006e+00 +4.7678225990550938e-01 -1.1113780053137949e-03 -3.1511501154402138e-01 +2.9650917012399788e+01 +2.5703686150361004e+03 -1.1128448828736568e+05 -1.1588912681736572e+07 
-2.3000000000000007e+00 +4.7678227647476162e-01 -1.0987692522793288e-03 -3.1735417773392260e-01 +2.9230474737675991e+01 +2.6159948782276665e+03 -1.0885637127305137e+05 -1.1799893886160413e+07 
-2.4000000000000008e+00 +4.7678229018650115e-01 -1.0853611424838324e-03 -3.1937292286028712e-01 +2.8802659690698299e+01 +2.6585728430584181e+03 -1.0642816882079619e+05 -1.1999446999574572e+07 
-2.5000000000000009e+00 +4.7678230112139341e-01 -1.0713434605185593e-03 -3.2118740734857870e-01 +2.8371710779783292e+01 +2.6983224563048593e+03 -1.0401999400418127e+05 -1.2188440408654021e+07 
-2.6000000000000010e+00 +4.7678230935995491e-01 -1.0569059921910287e-03 -3.2281377619298951e-01 +2.7941866856335423e+01 +2.7354634299092854e+03 -1.0165195939154722e+05 -1.2367741603886617e+07 
-2.7000000000000011e+00 +4.7678231498249335e-01 -1.0422385268299781e-03 -3.2426815261500569e-01 +2.7517366775494057e+01 +2.7702151322479272e+03 -9.9344177376527121e+04 -1.2538216697356302e+07 
-2.8000000000000012e+00 +4.7678231806913313e-01 -1.0275308556384323e-03 -3.2556664109019418e-01 +2.7102449325993508e+01 +2.8027966481425174e+03 -9.7116759708774800e+04 -1.2700730716195183e+07 
-2.9000000000000012e+00 +4.7678231869974785e-01 -1.0129727789065937e-03 -3.2672532086732109e-01 +2.6701353424586863e+01 +2.8334266729499450e+03 -9.4989818568045492e+04 -1.2856147148835493e+07 
-3.0000000000000013e+00 +4.7678231695396367e-01 -9.9875410104180115e-04 -3.2776024623966343e-01 +2.6318317959918627e+01 +2.8623235207164948e+03 -9.2983465628569465e+04 -1.3005327993211791e+07 
-3.1000000000000014e+00 +4.7678231291115603e-01 -9.8506463954026158e-04 -3.2868744723616078e-01 +2.5957582031453274e+01 +2.8897051462171376e+03 -9.1117813372281089e+04 -1.3149133885785297e+07 
-3.2000000000000015e+00 +4.7678230665039251e-01 -9.7209422080244507e-04 -3.2952292328477228e-01 +2.5623384822363242e+01 +2.9157890365748317e+03 -8.9412974340120374e+04 -1.3288423623912491e+07 
-3.3000000000000016e+00 +4.7678229825044172e-01 -9.6003268647102367e-04 -3.3028264494336962e-01 +2.5319965753640719e+01 +2.9407922495745570e+03 -8.7889061928989293e+04 -1.3424054362021472e+07 
-3.4000000000000017e+00 +4.7678228778974457e-01 -9.4906989334012993e-04 -3.3098255108986357e-01 +2.5051564479209446e+01 +2.9649313704105671e+03 -8.6566190359180895e+04 -1.3556881436424939e+07 
-3.5000000000000018e+00 +4.7678227534638862e-01 -9.3939571374680015e-04 -3.3163854652684327e-01 +2.4822420873707451e+01 +2.9884224753163803e+03 -8.5464474532151013e+04 -1.3687758219083834e+07 
-3.6000000000000019e+00 +4.7678226099810211e-01 -9.3120004163735001e-04 -3.3226650192126794e-01 +2.4636775197352762e+01 +3.0114811376044886e+03 -8.4604030946100422e+04 -1.3817536166979402e+07 
-3.7000000000000020e+00 +4.7678224482221443e-01 -9.2467278897878050e-04 -3.3288224986446546e-01 +2.4498867973325609e+01 +3.0343223637422689e+03 -8.4004976937039857e+04 -1.3947064550024081e+07 
-3.8000000000000020e+00 +4.7678222689565092e-01 -9.2000389177258706e-04 -3.3350158444211697e-01 +2.4412940144889138e+01 +3.0571605914095462e+03 -8.3687431531572962e+04 -1.4077190461740866e+07 
-3.9000000000000021e+00 +4.7678220729492143e-01 -9.1738331135363354e-04 -3.3414026120810103e-01 +2.4383233107027685e+01 +3.0802096999127621e+03 -8.3671515609786293e+04 -1.4208758897337822e+07 
-4.0000000000000018e+00 +4.7678218609619449e-01 -9.1700087508429936e-04 -3.3481403246366959e-01 +2.4413983732189557e+01 +3.1036839699249554e+03 -8.3977337382342375e+04 -1.4342616795258576e+07 
-4.1000000000000014e+00 +4.7678216335851326e-01 -9.1898734677000270e-04 -3.3553967220545622e-01 +2.4507966402684229e+01 +3.1278435643904345e+03 -8.4617921025938573e+04 -1.4479840092813086e+07 
-4.2000000000000011e+00 +4.7678213914811696e-01 -9.2323638715995169e-04 -3.3632461324794077e-01 +2.4662236897431125e+01 +3.1527594885947155e+03 -8.5577416761398534e+04 -1.4620548646394663e+07 
-4.3000000000000007e+00 +4.7678211355301137e-01 -9.2956760267270575e-04 -3.3717004675204482e-01 +2.4872018753492132e+01 +3.1783484748922465e+03 -8.6830397146848423e+04 -1.4764060095322398e+07 
-4.4000000000000004e+00 +4.7678208666128996e-01 -9.3780034084279238e-04 -3.3807712686135610e-01 +2.5132525938376077e+01 +3.2045259817636247e+03 -8.8351374924972013e+04 -1.4909684426775731e+07 
-4.5000000000000000e+00 +4.7678205856128880e-01 -9.4775398451828609e-04 -3.3904703379643708e-01 +2.5438973064372448e+01 +3.2312078901284253e+03 -9.0114864879351575e+04 -1.5056733352685818e+07 
-4.5999999999999996e+00 +4.7678202934158154e-01 -9.5924795316725702e-04 -3.4008097278038979e-01 +2.5786575412151290e+01 +3.2583104763468573e+03 -9.2095383889012155e+04 -1.5204520156966975e+07 
-4.6999999999999993e+00 +4.7678199909102803e-01 -9.7210170590650562e-04 -3.4118017962644015e-01 +2.6170549003258891e+01 +3.2857505091523026e+03 -9.4267451269625060e+04 -1.5352360121870568e+07 
-4.7999999999999989e+00 +4.7678196789878613e-01 -9.8613474229711359e-04 -3.4234592192432911e-01 +2.6586110604513017e+01 +3.3134452680677796e+03 -9.6605588706039300e+04 -1.5499570597704075e+07 
-4.8999999999999986e+00 +4.7678193585432449e-01 -1.0011666031728545e-03 -3.4357950015208683e-01 +2.7028477740627395e+01 +3.3413125557204321e+03 -9.9084320257853979e+04 -1.5645471029701332e+07 
-4.9999999999999982e+00 +4.7678190304745166e-01 -1.0170168760698405e-03 -3.4488225105345438e-01 +2.7492868828030520e+01 +3.3692707559829978e+03 -1.0167817302584743e+05 -1.5789383210043134e+07 
-5.0999999999999979e+00 +4.7678186956835233e-01 -1.0335051930609020e-03 -3.4625555166902755e-01 +2.7974503106374542e+01 +3.3972389039718482e+03 -1.0436167670326692e+05 -1.5930631584015375e+07 
-5.1999999999999975e+00 +4.7678183550757552e-01 -1.0504512367159663e-03 -3.4770081723370044e-01 +2.8468600786182495e+01 +3.4251366362810513e+03 -1.0710936432054106e+05 -1.6068542981228912e+07 
-5.2999999999999972e+00 +4.7678180095607481e-01 -1.0676747379642407e-03 -3.4921950657426448e-01 +2.8970382975317737e+01 +3.4528842925041272e+03 -1.0989577174909387e+05 -1.6202447086016009e+07 
-5.3999999999999968e+00 +4.7678176600523808e-01 -1.0849954815084191e-03 -3.5081312458712166e-01 +2.9475071823042402e+01 +3.4804029499023213e+03 -1.1269543845877578e+05 -1.6331676560724488e+07 
-5.4999999999999964e+00 +4.7678173074688895e-01 -1.1022333068248630e-03 -3.5248322243037133e-01 +2.9977890525277857e+01 +3.5076144226504766e+03 -1.1548290744521281e+05 -1.6455567024046445e+07 
-5.5999999999999961e+00 +4.7678169527333136e-01 -1.1192081079990511e-03 -3.5423140271418579e-01 +3.0474063310984455e+01 +3.5344413531741729e+03 -1.1823272508605929e+05 -1.6573457455516461e+07 
-5.6999999999999957e+00 +4.7678165967734754e-01 -1.1357398381431506e-03 -3.5605931873603880e-01 +3.0958815550980773e+01 +3.5608071914394704e+03 -1.2091944167916689e+05 -1.6684690075016988e+07 
-5.7999999999999954e+00 +4.7678162405222130e-01 -1.1516485126702187e-03 -3.5796867709092445e-01 +3.1427373837251903e+01 +3.5866362362815084e+03 -1.2351761181481248e+05 -1.6788610507717602e+07 
-5.8999999999999950e+00 +4.7678158849178898e-01 -1.1667542064785577e-03 -3.5996124364719384e-01 +3.1874965890553579e+01 +3.6118537437017812e+03 -1.2600179377948571e+05 -1.6884568276184469e+07 
-5.9999999999999947e+00 +4.7678155309003373e-01 -1.1808772797709504e-03 -3.6203873844834417e-01 +3.2296820218854450e+01 +3.6363844119720534e+03 -1.2834652874223303e+05 -1.6971911644044571e+07 
-6.0999999999999943e+00 +4.7678151793744017e-01 -1.1938811745725638e-03 -3.6419629536162124e-01 +3.2688948407546178e+01 +3.6600453902870622e+03 -1.3052971063563038e+05 -1.7049561410230823e+07 
-6.1999999999999940e+00 +4.7678148303339479e-01 -1.2057725675522827e-03 -3.6641528056149630e-01 +3.3051105651508898e+01 +3.6825279481479224e+03 -1.3254917545788386e+05 -1.7116236135907449e+07 
-6.2999999999999936e+00 +4.7678144832080005e-01 -1.2166074727262327e-03 -3.6867503166380955e-01 +3.3384883006253972e+01 +3.7035896559670236e+03 -1.3441372604009567e+05 -1.7171236726385858e+07 
-6.3999999999999932e+00 +4.7678141374242783e-01 -1.2264428130056009e-03 -3.7095498023768031e-01 +3.3691919009542147e+01 +3.7229933171084876e+03 -1.3613246975497130e+05 -1.7213897844884049e+07 
-6.4999999999999929e+00 +4.7678137924092934e-01 -1.2353354261007536e-03 -3.7323454250865468e-01 +3.3973849879049737e+01 +3.7405014612411906e+03 -1.3771450209637199e+05 -1.7243552938623805e+07 
-6.5999999999999925e+00 +4.7678134475885237e-01 -1.2433420603717724e-03 -3.7549312176352762e-01 +3.4232309408548801e+01 +3.7558763924377376e+03 -1.3916890618588973e+05 -1.7259534474622440e+07 
-6.6999999999999922e+00 +4.7678131023859244e-01 -1.2505193716636400e-03 -3.7771010198244281e-01 +3.4468928887823814e+01 +3.7688800680821955e+03 -1.4050475239331924e+05 -1.7261173368754242e+07 
-6.7999999999999918e+00 +4.7678127562240730e-01 -1.2569239177729107e-03 -3.7986485005574122e-01 +3.4685336963896013e+01 +3.7792741442417978e+03 -1.4173109765444981e+05 -1.7247799211403176e+07 
-6.8999999999999915e+00 +4.7678124085241702e-01 -1.2626121569496796e-03 -3.8193671543162583e-01 +3.4883159607472976e+01 +3.7868199689130192e+03 -1.4285698535668029e+05 -1.7218740237797044e+07 
-6.9999999999999911e+00 +4.7678120587058020e-01 -1.2676404411551925e-03 -3.8390502746194638e-01 +3.5064019936918328e+01 +3.7912785324417910e+03 -1.4389144443367695e+05 -1.7173323096738566e+07 
-7.0999999999999908e+00 +4.7678117061869374e-01 -1.2720650121364908e-03 -3.8574909550330366e-01 +3.5229538118920352e+01 +3.7924104748968484e+03 -1.4484348888480527e+05 -1.7110872903707493e+07 
-7.1999999999999904e+00 +4.7678113503838671e-01 -1.2759420012931769e-03 -3.8744820777324862e-01 +3.5381331377803377e+01 +3.7899760597285249e+03 -1.4572211792114947e+05 -1.7030713104809407e+07 
-7.2999999999999901e+00 +4.7678109907111399e-01 -1.2793274195083174e-03 -3.8898163088160420e-01 +3.5521013721790304e+01 +3.7837351703962763e+03 -1.4653631450027693e+05 -1.6932165478773709e+07 
-7.3999999999999897e+00 +4.7678106265814063e-01 -1.2822771581872500e-03 -3.9032860789912777e-01 +3.5650195983723755e+01 +3.7734472743221891e+03 -1.4729504564179556e+05 -1.6814549969392624e+07 
-7.4999999999999893e+00 +4.7678102574053799e-01 -1.2848469818468719e-03 -3.9146835789078932e-01 +3.5770485622599395e+01 +3.7588714147805158e+03 -1.4800726138467333e+05 -1.6677184651937125e+07 
-7.5999999999999890e+00 +4.7678098825918852e-01 -1.2870925264232137e-03 -3.9238007642937339e-01 +3.5883486693093019e+01 +3.7397662215016530e+03 -1.4868189471673028e+05 -1.6519385787070211e+07 
-7.6999999999999886e+00 +4.7678095015476252e-01 -1.2890692938394050e-03 -3.9304293282289787e-01 +3.5990799699613440e+01 +3.7158898607610240e+03 -1.4932786081869373e+05 -1.6340467595026387e+07 
-7.7999999999999883e+00 +4.7678091136772938e-01 -1.2908326476565809e-03 -3.9343607144345938e-01 +3.6094021487582417e+01 +3.6870000592358151e+03 -1.4995405653651897e+05 -1.6139742365477236e+07 
-7.8999999999999879e+00 +4.7678087183831153e-01 -1.2924378098800400e-03 -3.9353860632339138e-01 +3.6194745166737846e+01 +3.6528540076507388e+03 -1.5056936004504119e+05 -1.5916520022228278e+07 
-7.9999999999999876e+00 +4.7678083150672435e-01 -1.2939395095208747e-03 -3.9332973336670385e-01 +3.6294557248682693e+01 +3.6132102316840414e+03 -1.5118265822481728e+05 -1.5670113422664041e+07 
-8.0999999999999872e+00 +4.7678079030580001e-01 -1.2953692457228689e-03 -3.9279424447450273e-01 +3.6394583802102645e+01 +3.5679361929590336e+03 -1.5180091616948630e+05 -1.5400312479248371e+07 
-8.1999999999999869e+00 +4.7678074819967037e-01 -1.2967594484131276e-03 -3.9193994886849570e-01 +3.6495447897479380e+01 +3.5172949728477911e+03 -1.5242714135954084e+05 -1.5108558266557934e+07 
-8.2999999999999865e+00 +4.7678070519671384e-01 -1.2981662510700908e-03 -3.9078766718869562e-01 +3.6597626443353057e+01 +3.4617336153311448e+03 -1.5306148425808540e+05 -1.4796920897592321e+07 
-8.3999999999999861e+00 +4.7678066130680463e-01 -1.2996457248149085e-03 -3.8935851256065934e-01 +3.6701553834238965e+01 +3.4017003922061040e+03 -1.5370372768980634e+05 -1.4467459363938751e+07 
-8.4999999999999858e+00 +4.7678061653971743e-01 -1.3012539736444338e-03 -3.8767360651721394e-01 +3.6807666299495658e+01 +3.3376438835763574e+03 -1.5435366696170316e+05 -1.4122234439395238e+07 
-8.5999999999999854e+00 +4.7678057090513587e-01 -1.3030471385349633e-03 -3.8575408017103863e-01 +3.6916402048555618e+01 +3.2700130015044065e+03 -1.5501111075094578e+05 -1.3763308794774810e+07 
-8.6999999999999851e+00 +4.7678052441264529e-01 -1.3050813981355760e-03 -3.8362107438270321e-01 +3.7028201317638057e+01 +3.1992570006855235e+03 -1.5567588142575766e+05 -1.3392747065777745e+07 
-8.7999999999999847e+00 +4.7678047707173188e-01 -1.3074129688098130e-03 -3.8129573979023174e-01 +3.7143506405670003e+01 +3.1258254798349581e+03 -1.5634781532957830e+05 -1.3012615860448023e+07 
-8.8999999999999844e+00 +4.7678042889177175e-01 -1.3100981093542201e-03 -3.7879923645948704e-01 +3.7262761836294409e+01 +3.0501683827817851e+03 -1.5702676375796576e+05 -1.2624983782492679e+07 
-8.9999999999999840e+00 +4.7678037988204131e-01 -1.3131931197662185e-03 -3.7615273552608530e-01 +3.7386414347288380e+01 +2.9727360320260823e+03 -1.5771259295087520e+05 -1.2231921595235594e+07 
-9.0999999999999837e+00 +4.7678033005170972e-01 -1.3167543447045041e-03 -3.7337741905427591e-01 +3.7514913028550652e+01 +2.8939791312654907e+03 -1.5840518496730924e+05 -1.1835502244633351e+07 
-9.1999999999999833e+00 +4.7678027940981577e-01 -1.3208381750639956e-03 -3.7049447758223392e-01 +3.7648709387684768e+01 +2.8143487230772639e+03 -1.5910443809757932e+05 -1.1437800669674074e+07 
-9.2999999999999829e+00 +4.7678022796530872e-01 -1.3255010497394621e-03 -3.6752511581302377e-01 +3.7788257435208358e+01 +2.7342963001715066e+03 -1.5981026742981479e+05 -1.1040894334578250e+07 
-9.3999999999999826e+00 +4.7678017572700243e-01 -1.3307994563552406e-03 -3.6449054764879607e-01 +3.7934013734875855e+01 +2.6542737173191836e+03 -1.6052260519583517e+05 -1.0646862827805240e+07 
-9.4999999999999822e+00 +4.7678012270359493e-01 -1.3367899334083043e-03 -3.6141199932543372e-01 +3.8086437493439895e+01 +2.5747332546524890e+03 -1.6124140134870028e+05 -1.0257788167984210e+07 
-9.5999999999999819e+00 +4.7678006890365598e-01 -1.3435290720124468e-03 -3.5831070802659315e-01 +3.8245990639475060e+01 +2.4961275947463027e+03 -1.6196662406967086e+05 -9.8757547053503040e+06 
-9.6999999999999815e+00 +4.7678001433563733e-01 -1.3510735193790176e-03 -3.5520792418448716e-01 +3.8413137957293152e+01 +2.4189098718009845e+03 -1.6269826061409264e+05 -9.5028493651840966e+06 
-9.7999999999999812e+00 +4.7677995900785164e-01 -1.3594799763488033e-03 -3.5212490923615908e-01 +3.8588347038656686e+01 +2.3435336326097631e+03 -1.6343631707521368e+05 -9.1411614715357162e+06 
-9.8999999999999808e+00 +4.7677990292848621e-01 -1.3688052041349822e-03 -3.4908293817391645e-01 +3.8772088516334961e+01 +2.2704528903966398e+03 -1.6418081981488879e+05 -8.7927830145971123e+06 
-9.9999999999999805e+00 +4.7677984610831892e-01 -1.3791067711534583e-03 -3.4610364287029721e-01 +3.8964917931787859e+01 +2.2001208455199926e+03 -1.6493234662202015e+05 -8.4597845909462888e+06 
-1.0099999999999980e+01 +4.7677978854379144e-01 -1.3904335243972237e-03 -3.4321247768736030e-01 +3.9167912747224960e+01 +2.1330004319256996e+03 -1.6569574995651227e+05 -8.1441030635749074e+06 
