# trajectory
# s[mm] rx[mm] ry[mm] rz[mm] px[rad] py[rad] pz[rad]
0.0000000000000000e+00 +4.6467000000000001e+00 +0.0000000000000000e+00 +0.0000000000000000e+00 +0.0000000000000000e+00 +0.0000000000000000e+00 +1.0000000000000000e+00
1.0000000000000001e-01 +4.6466960996181284e+00 +0.0000000000000000e+00 +9.9999999898580147e-02 -7.8007635965625513e-05 +0.0000000000000000e+00 +9.9999999695740438e-01
2.0000000000000001e-01 +4.6466843984731110e+00 +0.0000000000000000e+00 +1.9999999918864120e-01 -1.5601526280770256e-04 +0.0000000000000000e+00 +9.9999998782961885e-01
3.0000000000000004e-01 +4.6466648965658903e+00 +0.0000000000000000e+00 +2.9999999726166432e-01 -2.3402287993778693e-04 +0.0000000000000000e+00 +9.9999997261664553e-01
4.0000000000000002e-01 +4.6466375938974673e+00 +0.0000000000000000e+00 +3.9999999350913079e-01 -3.1203048676246159e-04 +0.0000000000000000e+00 +9.9999995131848651e-01
5.0000000000000000e-01 +4.6466024904689016e+00 +0.0000000000000000e+00 +4.9999998732252215e-01 -3.9003808268335072e-04 +0.0000000000000000e+00 +9.9999992393514414e-01
5.9999999999999998e-01 +4.6465595862813140e+00 +0.0000000000000000e+00 +5.9999997809332017e-01 -4.6804566709713003e-04 +0.0000000000000000e+00 +9.9999989046662074e-01
6.9999999999999996e-01 +4.6465088813358859e+00 +0.0000000000000000e+00 +6.9999996521300700e-01 -5.4605323939553379e-04 +0.0000000000000000e+00 +9.9999985091291876e-01
7.9999999999999993e-01 +4.6464503756338589e+00 +0.0000000000000000e+00 +7.9999994807306474e-01 -6.2406079896535802e-04 +0.0000000000000000e+00 +9.9999980527404064e-01
8.9999999999999991e-01 +4.6463840691765377e+00 +0.0000000000000000e+00 +8.9999992606497603e-01 -7.0206834518846020e-04 +0.0000000000000000e+00 +9.9999975354998893e-01
9.9999999999999989e-01 +4.6463099619652874e+00 +0.0000000000000000e+00 +9.9999989858022353e-01 -7.8007587744175573e-04 +0.0000000000000000e+00 +9.9999969574076641e-01
1.0999999999999999e+00 +4.6462280540015364e+00 +0.0000000000000000e+00 +1.0999998650102905e+00 -8.5808339509720998e-04 +0.0000000000000000e+00 +9.9999963184637575e-01
1.2000000000000000e+00 +4.6461383452867757e+00 +0.0000000000000000e+00 +1.1999998247466599e+00 -9.3609089752182790e-04 +0.0000000000000000e+00 +9.9999956186681982e-01
1.3000000000000000e+00 +4.6460408358225607e+00 +0.0000000000000000e+00 +1.2999997771808156e+00 -1.0140983840776390e-03 +0.0000000000000000e+00 +9.9999948580210152e-01
1.4000000000000001e+00 +4.6459355256105104e+00 +0.0000000000000000e+00 +1.3999997217042415e+00 -1.0921058541216797e-03 +0.0000000000000000e+00 +9.9999940365222384e-01
1.5000000000000002e+00 +4.6458224146523079e+00 +0.0000000000000000e+00 +1.4999996577084218e+00 -1.1701133070059714e-03 +0.0000000000000000e+00 +9.9999931541719000e-01
1.6000000000000003e+00 +4.6457015029497022e+00 +0.0000000000000000e+00 +1.5999995845848409e+00 -1.2481207420774949e-03 +0.0000000000000000e+00 +9.9999922109700323e-01
1.7000000000000004e+00 +4.6455727905045077e+00 +0.0000000000000000e+00 +1.6999995017249840e+00 -1.3261281586781624e-03 +0.0000000000000000e+00 +9.9999912069166674e-01
1.8000000000000005e+00 +4.6454362773186046e+00 +0.0000000000000000e+00 +1.7999994085203361e+00 -1.4041355561447845e-03 +0.0000000000000000e+00 +9.9999901420118409e-01
1.9000000000000006e+00 +4.6452919633939391e+00 +0.0000000000000000e+00 +1.8999993043623828e+00 -1.4821429338090343e-03 +0.0000000000000000e+00 +9.9999890162555871e-01
2.0000000000000004e+00 +4.6451398487325255e+00 +0.0000000000000000e+00 +1.9999991886426101e+00 -1.5601502909974084e-03 +0.0000000000000000e+00 +9.9999878296479416e-01
2.1000000000000005e+00 +4.6449799333364448e+00 +0.0000000000000000e+00 +2.0999990607525039e+00 -1.6381576270323485e-03 +0.0000000000000000e+00 +9.9999865821889433e-01
2.2000000000000006e+00 +4.6448122172078463e+00 +0.0000000000000000e+00 +2.1999989200835510e+00 -1.7161649412450197e-03 +0.0000000000000000e+00 +9.9999852738786299e-01
2.3000000000000007e+00 +4.6446367003489444e+00 +0.0000000000000000e+00 +2.2999987660272390e+00 -1.7941722329881202e-03 +0.0000000000000000e+00 +9.9999839047170391e-01
2.4000000000000008e+00 +4.6444533827620180e+00 +0.0000000000000000e+00 +2.3999985979750544e+00 -1.8721795016370581e-03 +0.0000000000000000e+00 +9.9999824747042121e-01
2.5000000000000009e+00 +4.6442622644494067e+00 +0.0000000000000000e+00 +2.4999984153184855e+00 -1.9501867465899665e-03 +0.0000000000000000e+00 +9.9999809838401865e-01
2.6000000000000010e+00 +4.6440633454135094e+00 +0.0000000000000000e+00 +2.5999982174490208e+00 -2.0281939672677236e-03 +0.0000000000000000e+00 +9.9999794321250035e-01
2.7000000000000011e+00 +4.6438566256567810e+00 +0.0000000000000000e+00 +2.6999980037581488e+00 -2.1062011631139748e-03 +0.0000000000000000e+00 +9.9999778195587041e-01
2.8000000000000012e+00 +4.6436421051817325e+00 +0.0000000000000000e+00 +2.7999977736373580e+00 -2.1842083335951589e-03 +0.0000000000000000e+00 +9.9999761461413272e-01
2.9000000000000012e+00 +4.6434197839909253e+00 +0.0000000000000000e+00 +2.8999975264781384e+00 -2.2622154782005375e-03 +0.0000000000000000e+00 +9.9999744118729139e-01
3.0000000000000013e+00 +4.6431896620869715e+00 +0.0000000000000000e+00 +2.9999972616719797e+00 -2.3402225964422279e-03 +0.0000000000000000e+00 +9.9999726167535041e-01
3.1000000000000014e+00 +4.6429517394725313e+00 +0.0000000000000000e+00 +3.0999969786103718e+00 -2.4182296878552394e-03 +0.0000000000000000e+00 +9.9999707607831378e-01
3.2000000000000015e+00 +4.6427060161503100e+00 +0.0000000000000000e+00 +3.1999966766848060e+00 -2.4962367519975122e-03 +0.0000000000000000e+00 +9.9999688439618550e-01
3.3000000000000016e+00 +4.6424524921230548e+00 +0.0000000000000000e+00 +3.2999963552867730e+00 -2.5742437884499619e-03 +0.0000000000000000e+00 +9.9999668662896957e-01
3.4000000000000017e+00 +4.6421911673935554e+00 +0.0000000000000000e+00 +3.3999960138077641e+00 -2.6522507968165243e-03 +0.0000000000000000e+00 +9.9999648277666997e-01
3.5000000000000018e+00 +4.6419220419646399e+00 +0.0000000000000000e+00 +3.4999956516392712e+00 -2.7302577767242065e-03 +0.0000000000000000e+00 +9.9999627283929049e-01
3.6000000000000019e+00 +4.6416451158391707e+00 +0.0000000000000000e+00 +3.5999952681727865e+00 -2.8082647278231390e-03 +0.0000000000000000e+00 +9.9999605681683490e-01
3.7000000000000020e+00 +4.6413603890200461e+00 +0.0000000000000000e+00 +3.6999948627998025e+00 -2.8862716497866326e-03 +0.0000000000000000e+00 +9.9999583470930697e-01
3.8000000000000020e+00 +4.6410678615101943e+00 +0.0000000000000000e+00 +3.7999944349118122e+00 -2.9642785423112396e-03 +0.0000000000000000e+00 +9.9999560651671038e-01
3.9000000000000021e+00 +4.6407675333125740e+00 +0.0000000000000000e+00 +3.8999939839003090e+00 -3.0422854051168147e-03 +0.0000000000000000e+00 +9.9999537223904877e-01
4.0000000000000018e+00 +4.6404594044301701e+00 +0.0000000000000000e+00 +3.9999935091567864e+00 -3.1202922379465841e-03 +0.0000000000000000e+00 +9.9999513187632549e-01
4.1000000000000014e+00 +4.6401434748659920e+00 +0.0000000000000000e+00 +4.0999930100727386e+00 -3.1982990405649797e-03 +0.0000000000000000e+00 +9.9999488542854409e-01
4.2000000000000011e+00 +4.6398197446230727e+00 +0.0000000000000000e+00 +4.1999924860396600e+00 -3.2763058127331119e-03 +0.0000000000000000e+00 +9.9999463289570778e-01
4.3000000000000007e+00 +4.6394882137044693e+00 +0.0000000000000000e+00 +4.2999919364490449e+00 -3.3543125541841681e-03 +0.0000000000000000e+00 +9.9999437427782001e-01
4.4000000000000004e+00 +4.6391488821132691e+00 +0.0000000000000000e+00 +4.3999913606923888e+00 -3.4323192646211185e-03 +0.0000000000000000e+00 +9.9999410957488422e-01
4.5000000000000000e+00 +4.6388017498525898e+00 +0.0000000000000000e+00 +4.4999907581611867e+00 -3.5103259437166542e-03 +0.0000000000000000e+00 +9.9999383878690407e-01
4.5999999999999996e+00 +4.6384468169255824e+00 +0.0000000000000000e+00 +4.5999901282469349e+00 -3.5883325911131186e-03 +0.0000000000000000e+00 +9.9999356191388322e-01
4.6999999999999993e+00 +4.6380840833354364e+00 +0.0000000000000000e+00 +4.6999894703411291e+00 -3.6663392064224349e-03 +0.0000000000000000e+00 +9.9999327895582546e-01
4.7999999999999989e+00 +4.6377135490853814e+00 +0.0000000000000000e+00 +4.7999887838352659e+00 -3.7443457892260288e-03 +0.0000000000000000e+00 +9.9999298991273466e-01
4.8999999999999986e+00 +4.6373352141786901e+00 +0.0000000000000000e+00 +4.8999880681208419e+00 -3.8223523390747464e-03 +0.0000000000000000e+00 +9.9999269478461483e-01
4.9999999999999982e+00 +4.6369490786186809e+00 +0.0000000000000000e+00 +4.9999873225893543e+00 -3.9003588554887688e-03 +0.0000000000000000e+00 +9.9999239357147029e-01
5.0999999999999979e+00 +4.6365551424087235e+00 +0.0000000000000000e+00 +5.0999865466323016e+00 -3.9783653379575215e-03 +0.0000000000000000e+00 +9.9999208627330527e-01
5.1999999999999975e+00 +4.6361534055522391e+00 +0.0000000000000000e+00 +5.1999857396411819e+00 -4.0563717859395786e-03 +0.0000000000000000e+00 +9.9999177289012442e-01
5.2999999999999972e+00 +4.6357438680527041e+00 +0.0000000000000000e+00 +5.2999849010074929e+00 -4.1343781988625629e-03 +0.0000000000000000e+00 +9.9999145342193241e-01
5.3999999999999968e+00 +4.6353265299136552e+00 +0.0000000000000000e+00 +5.3999840301227344e+00 -4.2123845761230421e-03 +0.0000000000000000e+00 +9.9999112786873412e-01
5.4999999999999964e+00 +4.6349013911386896e+00 +0.0000000000000000e+00 +5.4999831263784058e+00 -4.2903909170864205e-03 +0.0000000000000000e+00 +9.9999079623053466e-01
5.5999999999999961e+00 +4.6344684517314700e+00 +0.0000000000000000e+00 +5.5999821891660080e+00 -4.3683972210868246e-03 +0.0000000000000000e+00 +9.9999045850733936e-01
5.6999999999999957e+00 +4.6340277116957278e+00 +0.0000000000000000e+00 +5.6999812178770410e+00 -4.4464034874269866e-03 +0.0000000000000000e+00 +9.9999011469915389e-01
5.7999999999999954e+00 +4.6335791710352643e+00 +0.0000000000000000e+00 +5.7999802119030059e+00 -4.5244097153781214e-03 +0.0000000000000000e+00 +9.9998976480598412e-01
5.8999999999999950e+00 +4.6331228297539573e+00 +0.0000000000000000e+00 +5.8999791706354054e+00 -4.6024159041797999e-03 +0.0000000000000000e+00 +9.9998940882783605e-01
5.9999999999999947e+00 +4.6326586878557601e+00 +0.0000000000000000e+00 +5.9999780934657414e+00 -4.6804220530398191e-03 +0.0000000000000000e+00 +9.9998904676471612e-01
6.0999999999999943e+00 +4.6321867453447076e+00 +0.0000000000000000e+00 +6.0999769797855166e+00 -4.7584281611378057e-03 +0.0000000000000000e+00 +9.9998867861663088e-01
6.1999999999999940e+00 +4.6317070022249176e+00 +0.0000000000000000e+00 +6.1999758289862354e+00 -4.8364342276662840e-03 +0.0000000000000000e+00 +9.9998830438358710e-01
6.2999999999999936e+00 +4.6312194585005848e+00 +0.0000000000000000e+00 +6.2999746404594026e+00 -4.9144402518718471e-03 +0.0000000000000000e+00 +9.9998792406559134e-01
6.3999999999999932e+00 +4.6307241141759770e+00 +0.0000000000000000e+00 +6.3999734135965225e+00 -4.9924462330589291e-03 +0.0000000000000000e+00 +9.9998753766265014e-01
6.4999999999999929e+00 +4.6302209692554284e+00 +0.0000000000000000e+00 +6.4999721477891015e+00 -5.0704521705898266e-03 +0.0000000000000000e+00 +9.9998714517476972e-01
6.5999999999999925e+00 +4.6297100237433337e+00 +0.0000000000000000e+00 +6.5999708424286458e+00 -5.1484580638847272e-03 +0.0000000000000000e+00 +9.9998674660195608e-01
6.6999999999999922e+00 +4.6291912776441437e+00 +0.0000000000000000e+00 +6.6999694969066619e+00 -5.2264639124217412e-03 +0.0000000000000000e+00 +9.9998634194421498e-01
6.7999999999999918e+00 +4.6286647309623570e+00 +0.0000000000000000e+00 +6.7999681106146577e+00 -5.3044697157369298e-03 +0.0000000000000000e+00 +9.9998593120155199e-01
6.8999999999999915e+00 +4.6281303837025174e+00 +0.0000000000000000e+00 +6.8999666829441413e+00 -5.3824754734243417e-03 +0.0000000000000000e+00 +9.9998551437397243e-01
6.9999999999999911e+00 +4.6275882358692053e+00 +0.0000000000000000e+00 +6.9999652132866217e+00 -5.4604811851360485e-03 +0.0000000000000000e+00 +9.9998509146148129e-01
7.0999999999999908e+00 +4.6270382874670331e+00 +0.0000000000000000e+00 +7.0999637010336079e+00 -5.5384868505821815e-03 +0.0000000000000000e+00 +9.9998466246408313e-01
7.1999999999999904e+00 +4.6264805385006387e+00 +0.0000000000000000e+00 +7.1999621455766087e+00 -5.6164924695309747e-03 +0.0000000000000000e+00 +9.9998422738178228e-01
7.2999999999999901e+00 +4.6259149889746825e+00 +0.0000000000000000e+00 +7.2999605463071342e+00 -5.6944980418088056e-03 +0.0000000000000000e+00 +9.9998378621458262e-01
7.3999999999999897e+00 +4.6253416388938371e+00 +0.0000000000000000e+00 +7.3999589026166950e+00 -5.7725035673002389e-03 +0.0000000000000000e+00 +9.9998333896248781e-01
7.4999999999999893e+00 +4.6247604882627842e+00 +0.0000000000000000e+00 +7.4999572138968018e+00 -5.8505090459480737e-03 +0.0000000000000000e+00 +9.9998288562550086e-01
7.5999999999999890e+00 +4.6241715370862089e+00 +0.0000000000000000e+00 +7.5999554795389654e+00 -5.9285144777533943e-03 +0.0000000000000000e+00 +9.9998242620362454e-01
7.6999999999999886e+00 +4.6235747853687927e+00 +0.0000000000000000e+00 +7.6999536989346975e+00 -6.0065198627756184e-03 +0.0000000000000000e+00 +9.9998196069686096e-01
7.7999999999999883e+00 +4.6229702331152094e+00 +0.0000000000000000e+00 +7.7999518714755087e+00 -6.0845252011325502e-03 +0.0000000000000000e+00 +9.9998148910521190e-01
7.8999999999999879e+00 +4.6223578803301164e+00 +0.0000000000000000e+00 +7.8999499965529107e+00 -6.1625304930004376e-03 +0.0000000000000000e+00 +9.9998101142867857e-01
7.9999999999999876e+00 +4.6217377270181510e+00 +0.0000000000000000e+00 +7.9999480735584152e+00 -6.2405357386140260e-03 +0.0000000000000000e+00 +9.9998052766726175e-01
8.0999999999999872e+00 +4.6211097731839255e+00 +0.0000000000000000e+00 +8.0999461018835337e+00 -6.3185409382600210e-03 +0.0000000000000000e+00 +9.9998003782096156e-01
8.1999999999999869e+00 +4.6204740188320219e+00 +0.0000000000000000e+00 +8.1999440809197779e+00 -6.3965460922044493e-03 +0.0000000000000000e+00 +9.9997954188977811e-01
8.2999999999999865e+00 +4.6198304639670020e+00 +0.0000000000000000e+00 +8.2999420100586594e+00 -6.4745512006199688e-03 +0.0000000000000000e+00 +9.9997903987371195e-01
8.3999999999999861e+00 +4.6191791085934133e+00 +0.0000000000000000e+00 +8.3999398886916907e+00 -6.5525562635793478e-03 +0.0000000000000000e+00 +9.9997853177276408e-01
8.4999999999999858e+00 +4.6185199527158023e+00 +0.0000000000000000e+00 +8.4999377162103826e+00 -6.6305612810555808e-03 +0.0000000000000000e+00 +9.9997801758693605e-01
8.5999999999999854e+00 +4.6178529963387227e+00 +0.0000000000000000e+00 +8.5999354920062476e+00 -6.7085662529220037e-03 +0.0000000000000000e+00 +9.9997749731622987e-01
8.6999999999999851e+00 +4.6171782394667460e+00 +0.0000000000000000e+00 +8.6999332154707982e+00 -6.7865711789524162e-03 +0.0000000000000000e+00 +9.9997697096064830e-01
8.7999999999999847e+00 +4.6164956821044711e+00 +0.0000000000000000e+00 +8.7999308859955470e+00 -6.8645760588212038e-03 +0.0000000000000000e+00 +9.9997643852019480e-01
8.8999999999999844e+00 +4.6158053242565344e+00 +0.0000000000000000e+00 +8.8999285029720081e+00 -6.9425808921034669e-03 +0.0000000000000000e+00 +9.9997589999487335e-01
8.9999999999999840e+00 +4.6151071659276202e+00 +0.0000000000000000e+00 +8.9999260657916942e+00 -7.0205856782751498e-03 +0.0000000000000000e+00 +9.9997535538468862e-01
9.0999999999999837e+00 +4.6144012071224703e+00 +0.0000000000000000e+00 +9.0999235738461177e+00 -7.0985904167131780e-03 +0.0000000000000000e+00 +9.9997480468964617e-01
9.1999999999999833e+00 +4.6136874478458925e+00 +0.0000000000000000e+00 +9.1999210265267948e+00 -7.1765951066955942e-03 +0.0000000000000000e+00 +9.9997424790975231e-01
9.2999999999999829e+00 +4.6129658881027735e+00 +0.0000000000000000e+00 +9.2999184232252396e+00 -7.2545997474017009e-03 +0.0000000000000000e+00 +9.9997368504501416e-01
9.3999999999999826e+00 +4.6122365278980855e+00 +0.0000000000000000e+00 +9.3999157633329684e+00 -7.3326043379122038e-03 +0.0000000000000000e+00 +9.9997311609543971e-01
9.4999999999999822e+00 +4.6114993672368980e+00 +0.0000000000000000e+00 +9.4999130462414989e+00 -7.4106088772093624e-03 +0.0000000000000000e+00 +9.9997254106103795e-01
9.5999999999999819e+00 +4.6107544061243875e+00 +0.0000000000000000e+00 +9.5999102713423490e+00 -7.4886133641771406e-03 +0.0000000000000000e+00 +9.9997195994181864e-01
9.6999999999999815e+00 +4.6100016445658474e+00 +0.0000000000000000e+00 +9.6999074380270365e+00 -7.5666177976013637e-03 +0.0000000000000000e+00 +9.9997137273779257e-01
9.7999999999999812e+00 +4.6092410825666956e+00 +0.0000000000000000e+00 +9.7999045456870810e+00 -7.6446221761698775e-03 +0.0000000000000000e+00 +9.9997077944897161e-01
9.8999999999999808e+00 +4.6084727201324887e+00 +0.0000000000000000e+00 +9.8999015937140040e+00 -7.7226264984727091e-03 +0.0000000000000000e+00 +9.9997018007536875e-01
9.9999999999999805e+00 +4.6076965572689268e+00 +0.0000000000000000e+00 +9.9998985814993286e+00 -7.8006307630022363e-03 +0.0000000000000000e+00 +9.9996957461699787e-01
1.0099999999999980e+01 +4.6069125939818676e+00 +0.0000000000000000e+00 +1.0099895508434578e+01 -7.8786349681583510e-03 +0.0000000000000000e+00 +9.9996896307387406e-01
1.0199999999999980e+01 +4.6061208302773293e+00 +0.0000000000000000e+00 +1.0199892373911279e+01 -7.9566391123037112e-03 +0.0000000000000000e+00 +9.9996834544601310e-01
1.0299999999999979e+01 +4.6053212661614946e+00 +0.0000000000000000e+00 +1.0299889177320956e+01 -8.0346431938189515e-03 +0.0000000000000000e+00 +9.9996772173343096e-01
1.0399999999999979e+01 +4.6045139016407068e+00 +0.0000000000000000e+00 +1.0399885918055141e+01 -8.1126472111075869e-03 +0.0000000000000000e+00 +9.9996709193614397e-01
1.0499999999999979e+01 +4.6036987367214666e+00 +0.0000000000000000e+00 +1.0499882595505362e+01 -8.1906511625958710e-03 +0.0000000000000000e+00 +9.9996645605416845e-01
1.0599999999999978e+01 +4.6028757714104325e+00 +0.0000000000000000e+00 +1.0599879209063152e+01 -8.2686550467326540e-03 +0.0000000000000000e+00 +9.9996581408752105e-01
1.0699999999999978e+01 +4.6020450057144160e+00 +0.0000000000000000e+00 +1.0699875758120044e+01 -8.3466588619892368e-03 +0.0000000000000000e+00 +9.9996516603621854e-01
1.0799999999999978e+01 +4.6012064396403805e+00 +0.0000000000000000e+00 +1.0799872242067574e+01 -8.4246626068592186e-03 +0.0000000000000000e+00 +9.9996451190027791e-01
1.0899999999999977e+01 +4.6003600731954393e+00 +0.0000000000000000e+00 +1.0899868660297278e+01 -8.5026662798583404e-03 +0.0000000000000000e+00 +9.9996385167971635e-01
1.0999999999999977e+01 +4.5995059063868533e+00 +0.0000000000000000e+00 +1.0999865012200695e+01 -8.5806698795243257e-03 +0.0000000000000000e+00 +9.9996318537455120e-01
1.1099999999999977e+01 +4.5986439392220273e+00 +0.0000000000000000e+00 +1.1099861297169367e+01 -8.6586734044167210e-03 +0.0000000000000000e+00 +9.9996251298479988e-01
1.1199999999999976e+01 +4.5977741717085099e+00 +0.0000000000000000e+00 +1.1199857514594836e+01 -8.7366768531167219e-03 +0.0000000000000000e+00 +9.9996183451048004e-01
1.1299999999999976e+01 +4.5968966038539900e+00 +0.0000000000000000e+00 +1.1299853663868644e+01 -8.8146802242270103e-03 +0.0000000000000000e+00 +9.9996114995160945e-01
1.1399999999999975e+01 +4.5960112356662961e+00 +0.0000000000000000e+00 +1.1399849744382339e+01 -8.8926835163715742e-03 +0.0000000000000000e+00 +9.9996045930820598e-01
1.1499999999999975e+01 +4.5951180671533924e+00 +0.0000000000000000e+00 +1.1499845755527467e+01 -8.9706867281955319e-03 +0.0000000000000000e+00 +9.9995976258028763e-01
1.1599999999999975e+01 +4.5942170983233783e+00 +0.0000000000000000e+00 +1.1599841696695579e+01 -9.0486898583649489e-03 +0.0000000000000000e+00 +9.9995905976787258e-01
1.1699999999999974e+01 +4.5933083291844845e+00 +0.0000000000000000e+00 +1.1699837567278225e+01 -9.1266929055666534e-03 +0.0000000000000000e+00 +9.9995835087097906e-01
1.1799999999999974e+01 +4.5923917597450732e+00 +0.0000000000000000e+00 +1.1799833366666959e+01 -9.2046958685080421e-03 +0.0000000000000000e+00 +9.9995763588962550e-01
